\\scl1\service30\SAXS\2013_02\Marccd\Feb13_07192.mccd: Q-Space Scan
Q (Inverse Nanometres)
Intensity
       2190
 1.2560482E-02  0.0000000E+00
 3.7681445E-02  0.0000000E+00
 6.2802412E-02  0.0000000E+00
 8.7923378E-02  0.0000000E+00
 1.1304434E-01  0.0000000E+00
 1.3816531E-01  0.0000000E+00
 1.6328627E-01  0.0000000E+00
 1.8840723E-01  0.0000000E+00
 2.1352820E-01  0.0000000E+00
 2.3864916E-01  0.0000000E+00
 2.6377013E-01  0.0000000E+00
 2.8889108E-01  0.0000000E+00
 3.1401205E-01  0.0000000E+00
 3.3913302E-01  0.0000000E+00
 3.6425397E-01  0.0000000E+00
 3.8937494E-01  0.0000000E+00
 4.1449592E-01  0.0000000E+00
 4.3961689E-01  0.0000000E+00
 4.6473783E-01  0.0000000E+00
 4.8985881E-01  0.0000000E+00
 5.1497978E-01  0.0000000E+00
 5.4010075E-01  0.0000000E+00
 5.6522167E-01  0.0000000E+00
 5.9034264E-01  0.0000000E+00
 6.1546361E-01  0.0000000E+00
 6.4058459E-01  0.0000000E+00
 6.6570556E-01  0.0000000E+00
 6.9082654E-01  0.0000000E+00
 7.1594751E-01  0.0000000E+00
 7.4106842E-01  0.0000000E+00
 7.6618940E-01  0.0000000E+00
 7.9131037E-01  0.0000000E+00
 8.1643134E-01  0.0000000E+00
 8.4155232E-01  0.0000000E+00
 8.6667329E-01  0.0000000E+00
 8.9179420E-01  0.0000000E+00
 9.1691518E-01  0.0000000E+00
 9.4203615E-01  0.0000000E+00
 9.6715713E-01  0.0000000E+00
 9.9227810E-01  0.0000000E+00
 1.0173991E+00  0.0000000E+00
 1.0425200E+00  0.0000000E+00
 1.0676410E+00  0.0000000E+00
 1.0927620E+00  0.0000000E+00
 1.1178830E+00  0.0000000E+00
 1.1430038E+00  0.0000000E+00
 1.1681248E+00  0.0000000E+00
 1.1932458E+00  0.0000000E+00
 1.2183667E+00  0.0000000E+00
 1.2434877E+00  0.0000000E+00
 1.2686087E+00  0.0000000E+00
 1.2937297E+00  0.0000000E+00
 1.3188506E+00  0.0000000E+00
 1.3439716E+00  0.0000000E+00
 1.3690926E+00  0.0000000E+00
 1.3942136E+00  0.0000000E+00
 1.4193345E+00  0.0000000E+00
 1.4444555E+00  0.0000000E+00
 1.4695764E+00  0.0000000E+00
 1.4946973E+00  0.0000000E+00
 1.5198183E+00  0.0000000E+00
 1.5449393E+00  0.0000000E+00
 1.5700603E+00  0.0000000E+00
 1.5951812E+00  0.0000000E+00
 1.6203022E+00  0.0000000E+00
 1.6454232E+00  0.0000000E+00
 1.6705441E+00  0.0000000E+00
 1.6956651E+00  0.0000000E+00
 1.7207861E+00  0.0000000E+00
 1.7459071E+00  0.0000000E+00
 1.7710279E+00  0.0000000E+00
 1.7961489E+00  0.0000000E+00
 1.8212699E+00  0.0000000E+00
 1.8463908E+00  0.0000000E+00
 1.8715118E+00  0.0000000E+00
 1.8966328E+00  0.0000000E+00
 1.9217538E+00  0.0000000E+00
 1.9468747E+00  0.0000000E+00
 1.9719957E+00  0.0000000E+00
 1.9971167E+00  0.0000000E+00
 2.0222375E+00  0.0000000E+00
 2.0473585E+00  0.0000000E+00
 2.0724795E+00  0.0000000E+00
 2.0976005E+00  0.0000000E+00
 2.1227214E+00  1.2833400E+02
 2.1478424E+00  1.2055088E+02
 2.1729634E+00  1.1745361E+02
 2.1980844E+00  1.1459193E+02
 2.2232053E+00  1.1213342E+02
 2.2483263E+00  1.0872272E+02
 2.2734473E+00  1.0598736E+02
 2.2985682E+00  1.0329870E+02
 2.3236892E+00  1.0085671E+02
 2.3488102E+00  9.9436134E+01
 2.3739312E+00  9.7734840E+01
 2.3990521E+00  9.5921982E+01
 2.4241731E+00  9.4111084E+01
 2.4492941E+00  9.2899284E+01
 2.4744151E+00  9.1672707E+01
 2.4995360E+00  8.9718140E+01
 2.5246570E+00  8.8161514E+01
 2.5497780E+00  8.7010521E+01
 2.5748987E+00  8.5855728E+01
 2.6000197E+00  8.4869171E+01
 2.6251407E+00  8.3745834E+01
 2.6502616E+00  8.2556709E+01
 2.6753826E+00  8.1301926E+01
 2.7005036E+00  8.0285698E+01
 2.7256246E+00  7.9258232E+01
 2.7507455E+00  7.8006943E+01
 2.7758665E+00  7.7243187E+01
 2.8009875E+00  7.6704788E+01
 2.8261085E+00  7.6430519E+01
 2.8512294E+00  7.5904198E+01
 2.8763504E+00  7.5332069E+01
 2.9014714E+00  7.4828667E+01
 2.9265924E+00  7.4212601E+01
 2.9517133E+00  7.3604347E+01
 2.9768343E+00  7.2987953E+01
 3.0019553E+00  7.2455009E+01
 3.0270762E+00  7.1711296E+01
 3.0521972E+00  7.0931412E+01
 3.0773182E+00  7.0690491E+01
 3.1024392E+00  7.0403114E+01
 3.1275601E+00  7.0247444E+01
 3.1526811E+00  6.9738724E+01
 3.1778021E+00  6.9393684E+01
 3.2029231E+00  6.9354347E+01
 3.2280438E+00  6.9138443E+01
 3.2531648E+00  6.8708687E+01
 3.2782857E+00  6.8220581E+01
 3.3034067E+00  6.7785912E+01
 3.3285277E+00  6.7451027E+01
 3.3536487E+00  6.7375793E+01
 3.3787696E+00  6.6976654E+01
 3.4038906E+00  6.6654419E+01
 3.4290116E+00  6.6790245E+01
 3.4541326E+00  6.6784210E+01
 3.4792535E+00  6.6632294E+01
 3.5043745E+00  6.6501717E+01
 3.5294955E+00  6.6039024E+01
 3.5546165E+00  6.5735672E+01
 3.5797374E+00  6.5574631E+01
 3.6048584E+00  6.5589958E+01
 3.6299794E+00  6.5567078E+01
 3.6551003E+00  6.5451294E+01
 3.6802213E+00  6.5316696E+01
 3.7053423E+00  6.5081795E+01
 3.7304633E+00  6.4856461E+01
 3.7555842E+00  6.4593483E+01
 3.7807052E+00  6.4480270E+01
 3.8058262E+00  6.4423073E+01
 3.8309472E+00  6.4430191E+01
 3.8560681E+00  6.4375092E+01
 3.8811889E+00  6.4572853E+01
 3.9063098E+00  6.4775131E+01
 3.9314308E+00  6.4578255E+01
 3.9565518E+00  6.4173920E+01
 3.9816728E+00  6.3967503E+01
 4.0067940E+00  6.4118889E+01
 4.0319147E+00  6.4160767E+01
 4.0570359E+00  6.4223297E+01
 4.0821567E+00  6.4357620E+01
 4.1072779E+00  6.4430740E+01
 4.1323986E+00  6.4582481E+01
 4.1575198E+00  6.4537613E+01
 4.1826406E+00  6.4459946E+01
 4.2077613E+00  6.4481796E+01
 4.2328825E+00  6.4458519E+01
 4.2580032E+00  6.4376961E+01
 4.2831244E+00  6.4465225E+01
 4.3082452E+00  6.4578979E+01
 4.3333664E+00  6.4730927E+01
 4.3584871E+00  6.4747452E+01
 4.3836083E+00  6.4623352E+01
 4.4087291E+00  6.4717758E+01
 4.4338503E+00  6.4886887E+01
 4.4589710E+00  6.4975029E+01
 4.4840922E+00  6.4825516E+01
 4.5092130E+00  6.4693298E+01
 4.5343342E+00  6.4735199E+01
 4.5594549E+00  6.4743599E+01
 4.5845761E+00  6.4867783E+01
 4.6096969E+00  6.5112831E+01
 4.6348181E+00  6.5326675E+01
 4.6599388E+00  6.5291023E+01
 4.6850600E+00  6.5462036E+01
 4.7101808E+00  6.5558281E+01
 4.7353020E+00  6.5697212E+01
 4.7604227E+00  6.5757057E+01
 4.7855439E+00  6.5823662E+01
 4.8106647E+00  6.5941788E+01
 4.8357854E+00  6.6011803E+01
 4.8609066E+00  6.5974602E+01
 4.8860273E+00  6.5909714E+01
 4.9111485E+00  6.6078484E+01
 4.9362693E+00  6.6344040E+01
 4.9613905E+00  6.6530861E+01
 4.9865112E+00  6.6734116E+01
 5.0116324E+00  6.6902725E+01
 5.0367532E+00  6.6834831E+01
 5.0618744E+00  6.6925095E+01
 5.0869951E+00  6.7085678E+01
 5.1121163E+00  6.7203964E+01
 5.1372371E+00  6.7145378E+01
 5.1623583E+00  6.7080582E+01
 5.1874790E+00  6.7167412E+01
 5.2126002E+00  6.7322006E+01
 5.2377210E+00  6.7415245E+01
 5.2628422E+00  6.7542374E+01
 5.2879629E+00  6.7689903E+01
 5.3130841E+00  6.7849373E+01
 5.3382049E+00  6.8079819E+01
 5.3633261E+00  6.8164040E+01
 5.3884468E+00  6.8217598E+01
 5.4135680E+00  6.8324142E+01
 5.4386888E+00  6.8271545E+01
 5.4638100E+00  6.8417175E+01
 5.4889307E+00  6.8821449E+01
 5.5140514E+00  6.9161697E+01
 5.5391726E+00  6.9357491E+01
 5.5642934E+00  6.9356514E+01
 5.5894146E+00  6.9417999E+01
 5.6145353E+00  6.9492615E+01
 5.6396565E+00  6.9754677E+01
 5.6647773E+00  6.9972275E+01
 5.6898985E+00  7.0098488E+01
 5.7150192E+00  7.0188507E+01
 5.7401404E+00  7.0394432E+01
 5.7652612E+00  7.0631584E+01
 5.7903824E+00  7.0869247E+01
 5.8155031E+00  7.1038002E+01
 5.8406243E+00  7.1021011E+01
 5.8657451E+00  7.1063293E+01
 5.8908663E+00  7.1184303E+01
 5.9159870E+00  7.1236359E+01
 5.9411082E+00  7.1362587E+01
 5.9662290E+00  7.1619011E+01
 5.9913502E+00  7.1938438E+01
 6.0164709E+00  7.2159126E+01
 6.0415921E+00  7.2315704E+01
 6.0667129E+00  7.2325195E+01
 6.0918341E+00  7.2411903E+01
 6.1169548E+00  7.2544296E+01
 6.1420755E+00  7.2788795E+01
 6.1671968E+00  7.2962914E+01
 6.1923175E+00  7.3062721E+01
 6.2174387E+00  7.3222137E+01
 6.2425594E+00  7.3453972E+01
 6.2676806E+00  7.3683601E+01
 6.2928014E+00  7.3932663E+01
 6.3179226E+00  7.4137039E+01
 6.3430433E+00  7.4461327E+01
 6.3681645E+00  7.4834381E+01
 6.3932853E+00  7.5167610E+01
 6.4184065E+00  7.5286629E+01
 6.4435272E+00  7.5315987E+01
 6.4686484E+00  7.5491005E+01
 6.4937692E+00  7.5649185E+01
 6.5188904E+00  7.5834244E+01
 6.5440111E+00  7.6201736E+01
 6.5691323E+00  7.6701843E+01
 6.5942531E+00  7.6947731E+01
 6.6193743E+00  7.7112495E+01
 6.6444950E+00  7.7193825E+01
 6.6696162E+00  7.7225761E+01
 6.6947370E+00  7.7523048E+01
 6.7198582E+00  7.7800903E+01
 6.7449789E+00  7.8020622E+01
 6.7700996E+00  7.8270554E+01
 6.7952209E+00  7.8507057E+01
 6.8203416E+00  7.8829124E+01
 6.8454628E+00  7.9035507E+01
 6.8705835E+00  7.9269707E+01
 6.8957047E+00  7.9664040E+01
 6.9208255E+00  7.9952400E+01
 6.9459467E+00  8.0167664E+01
 6.9710674E+00  8.0388451E+01
 6.9961886E+00  8.0628464E+01
 7.0213094E+00  8.0821953E+01
 7.0464306E+00  8.1120514E+01
 7.0715513E+00  8.1523758E+01
 7.0966725E+00  8.1900108E+01
 7.1217933E+00  8.2365189E+01
 7.1469145E+00  8.2754898E+01
 7.1720352E+00  8.3052269E+01
 7.1971564E+00  8.3220337E+01
 7.2222772E+00  8.3425919E+01
 7.2473984E+00  8.3790146E+01
 7.2725191E+00  8.4276855E+01
 7.2976403E+00  8.4511223E+01
 7.3227611E+00  8.4750084E+01
 7.3478823E+00  8.5003876E+01
 7.3730030E+00  8.5308495E+01
 7.3981237E+00  8.5348900E+01
 7.4232450E+00  8.5563835E+01
 7.4483657E+00  8.5983627E+01
 7.4734869E+00  8.6385513E+01
 7.4986076E+00  8.6808365E+01
 7.5237288E+00  8.7221863E+01
 7.5488496E+00  8.7596504E+01
 7.5739708E+00  8.7826416E+01
 7.5990915E+00  8.8044304E+01
 7.6242127E+00  8.8307190E+01
 7.6493335E+00  8.8711197E+01
 7.6744547E+00  8.9184868E+01
 7.6995754E+00  8.9637405E+01
 7.7246966E+00  8.9856201E+01
 7.7498174E+00  9.0039833E+01
 7.7749386E+00  9.0354797E+01
 7.8000593E+00  9.0693077E+01
 7.8251805E+00  9.1176361E+01
 7.8503013E+00  9.1860313E+01
 7.8754225E+00  9.2367912E+01
 7.9005432E+00  9.2688797E+01
 7.9256644E+00  9.3042564E+01
 7.9507852E+00  9.3552505E+01
 7.9759064E+00  9.4278786E+01
 8.0010271E+00  9.4877701E+01
 8.0261478E+00  9.4973694E+01
 8.0512686E+00  9.4968193E+01
 8.0763903E+00  9.5040855E+01
 8.1015110E+00  9.5216019E+01
 8.1266317E+00  9.5675827E+01
 8.1517525E+00  9.6250938E+01
 8.1768742E+00  9.6646385E+01
 8.2019949E+00  9.7026276E+01
 8.2271156E+00  9.7410576E+01
 8.2522364E+00  9.7703384E+01
 8.2773581E+00  9.7903931E+01
 8.3024788E+00  9.8193794E+01
 8.3275995E+00  9.8871841E+01
 8.3527203E+00  9.9660919E+01
 8.3778419E+00  1.0009430E+02
 8.4029627E+00  1.0039887E+02
 8.4280834E+00  1.0073438E+02
 8.4532042E+00  1.0116115E+02
 8.4783258E+00  1.0164266E+02
 8.5034466E+00  1.0211591E+02
 8.5285673E+00  1.0246568E+02
 8.5536880E+00  1.0290669E+02
 8.5788097E+00  1.0352145E+02
 8.6039305E+00  1.0404751E+02
 8.6290512E+00  1.0483518E+02
 8.6541719E+00  1.0577949E+02
 8.6792936E+00  1.0721023E+02
 8.7044144E+00  1.0949607E+02
 8.7295351E+00  1.1360102E+02
 8.7546558E+00  1.2049839E+02
 8.7797766E+00  1.2914241E+02
 8.8048983E+00  1.3541628E+02
 8.8300190E+00  1.3506157E+02
 8.8551397E+00  1.3016811E+02
 8.8802605E+00  1.2590990E+02
 8.9053822E+00  1.2438072E+02
 8.9305029E+00  1.2368571E+02
 8.9556236E+00  1.2177352E+02
 8.9807444E+00  1.1857751E+02
 9.0058661E+00  1.1570552E+02
 9.0309868E+00  1.1417780E+02
 9.0561075E+00  1.1364879E+02
 9.0812283E+00  1.1335636E+02
 9.1063499E+00  1.1309798E+02
 9.1314707E+00  1.1304966E+02
 9.1565914E+00  1.1339410E+02
 9.1817122E+00  1.1390324E+02
 9.2068338E+00  1.1441942E+02
 9.2319546E+00  1.1480447E+02
 9.2570753E+00  1.1532350E+02
 9.2821960E+00  1.1571741E+02
 9.3073177E+00  1.1611575E+02
 9.3324385E+00  1.1647088E+02
 9.3575592E+00  1.1691305E+02
 9.3826799E+00  1.1754447E+02
 9.4078007E+00  1.1818855E+02
 9.4329224E+00  1.1889471E+02
 9.4580431E+00  1.1950391E+02
 9.4831638E+00  1.2008149E+02
 9.5082846E+00  1.2063222E+02
 9.5334063E+00  1.2119648E+02
 9.5585270E+00  1.2195927E+02
 9.5836477E+00  1.2281699E+02
 9.6087685E+00  1.2373912E+02
 9.6338902E+00  1.2471830E+02
 9.6590109E+00  1.2570524E+02
 9.6841316E+00  1.2612895E+02
 9.7092524E+00  1.2632328E+02
 9.7343740E+00  1.2652005E+02
 9.7594948E+00  1.2683099E+02
 9.7846155E+00  1.2732140E+02
 9.8097363E+00  1.2792195E+02
 9.8348579E+00  1.2863374E+02
 9.8599787E+00  1.2921921E+02
 9.8850994E+00  1.2976714E+02
 9.9102201E+00  1.3030701E+02
 9.9353418E+00  1.3099228E+02
 9.9604626E+00  1.3191988E+02
 9.9855833E+00  1.3282132E+02
 1.0010704E+01  1.3348676E+02
 1.0035825E+01  1.3418896E+02
 1.0060946E+01  1.3492326E+02
 1.0086067E+01  1.3561429E+02
 1.0111188E+01  1.3626785E+02
 1.0136309E+01  1.3701312E+02
 1.0161430E+01  1.3786708E+02
 1.0186551E+01  1.3871407E+02
 1.0211672E+01  1.3954495E+02
 1.0236793E+01  1.4043108E+02
 1.0261914E+01  1.4130434E+02
 1.0287035E+01  1.4220280E+02
 1.0312156E+01  1.4317311E+02
 1.0337276E+01  1.4408293E+02
 1.0362398E+01  1.4518507E+02
 1.0387519E+01  1.4634477E+02
 1.0412640E+01  1.4725519E+02
 1.0437760E+01  1.4806538E+02
 1.0462882E+01  1.4892825E+02
 1.0488003E+01  1.4980179E+02
 1.0513124E+01  1.5084297E+02
 1.0538244E+01  1.5194765E+02
 1.0563366E+01  1.5283754E+02
 1.0588487E+01  1.5372295E+02
 1.0613607E+01  1.5472482E+02
 1.0638728E+01  1.5592961E+02
 1.0663849E+01  1.5716185E+02
 1.0688971E+01  1.5823894E+02
 1.0714091E+01  1.5945386E+02
 1.0739212E+01  1.6079416E+02
 1.0764333E+01  1.6210091E+02
 1.0789454E+01  1.6355759E+02
 1.0814575E+01  1.6489162E+02
 1.0839696E+01  1.6607710E+02
 1.0864817E+01  1.6738008E+02
 1.0889938E+01  1.6894463E+02
 1.0915059E+01  1.7061446E+02
 1.0940180E+01  1.7213966E+02
 1.0965301E+01  1.7334860E+02
 1.0990422E+01  1.7451779E+02
 1.1015543E+01  1.7568401E+02
 1.1040664E+01  1.7663350E+02
 1.1065784E+01  1.7739038E+02
 1.1090906E+01  1.7864622E+02
 1.1116027E+01  1.8053604E+02
 1.1141148E+01  1.8403261E+02
 1.1166268E+01  1.9190030E+02
 1.1191390E+01  2.0593040E+02
 1.1216511E+01  2.1903215E+02
 1.1241632E+01  2.1993314E+02
 1.1266752E+01  2.0871405E+02
 1.1291873E+01  1.9618745E+02
 1.1316995E+01  1.9041833E+02
 1.1342115E+01  1.8898111E+02
 1.1367236E+01  1.8910638E+02
 1.1392357E+01  1.8980751E+02
 1.1417479E+01  1.9053719E+02
 1.1442599E+01  1.9126967E+02
 1.1467720E+01  1.9216637E+02
 1.1492841E+01  1.9342186E+02
 1.1517962E+01  1.9466560E+02
 1.1543083E+01  1.9577080E+02
 1.1568204E+01  1.9686855E+02
 1.1593325E+01  1.9807364E+02
 1.1618446E+01  1.9917699E+02
 1.1643567E+01  2.0017920E+02
 1.1668688E+01  2.0120500E+02
 1.1693809E+01  2.0249661E+02
 1.1718930E+01  2.0376784E+02
 1.1744051E+01  2.0482401E+02
 1.1769172E+01  2.0581322E+02
 1.1794292E+01  2.0686380E+02
 1.1819414E+01  2.0801563E+02
 1.1844535E+01  2.0895403E+02
 1.1869656E+01  2.0978745E+02
 1.1894776E+01  2.1066377E+02
 1.1919897E+01  2.1159352E+02
 1.1945019E+01  2.1236961E+02
 1.1970140E+01  2.1317030E+02
 1.1995260E+01  2.1425475E+02
 1.2020381E+01  2.1521164E+02
 1.2045503E+01  2.1594237E+02
 1.2070623E+01  2.1671802E+02
 1.2095744E+01  2.1753784E+02
 1.2120865E+01  2.1840598E+02
 1.2145987E+01  2.1933022E+02
 1.2171107E+01  2.2010530E+02
 1.2196228E+01  2.2074751E+02
 1.2221349E+01  2.2129756E+02
 1.2246470E+01  2.2170287E+02
 1.2271591E+01  2.2216994E+02
 1.2296712E+01  2.2285918E+02
 1.2321833E+01  2.2377605E+02
 1.2346954E+01  2.2443935E+02
 1.2372075E+01  2.2491653E+02
 1.2397196E+01  2.2543498E+02
 1.2422317E+01  2.2591922E+02
 1.2447438E+01  2.2636636E+02
 1.2472559E+01  2.2681688E+02
 1.2497680E+01  2.2740157E+02
 1.2522800E+01  2.2808534E+02
 1.2547921E+01  2.2867427E+02
 1.2573043E+01  2.2916248E+02
 1.2598164E+01  2.2950868E+02
 1.2623284E+01  2.2970000E+02
 1.2648405E+01  2.2975287E+02
 1.2673527E+01  2.2996332E+02
 1.2698647E+01  2.3027528E+02
 1.2723768E+01  2.3061354E+02
 1.2748889E+01  2.3081302E+02
 1.2774011E+01  2.3086385E+02
 1.2799131E+01  2.3088890E+02
 1.2824252E+01  2.3114427E+02
 1.2849373E+01  2.3151936E+02
 1.2874495E+01  2.3184041E+02
 1.2899615E+01  2.3202168E+02
 1.2924736E+01  2.3194162E+02
 1.2949857E+01  2.3180521E+02
 1.2974978E+01  2.3190453E+02
 1.3000099E+01  2.3214714E+02
 1.3025220E+01  2.3202498E+02
 1.3050341E+01  2.3180431E+02
 1.3075462E+01  2.3169403E+02
 1.3100583E+01  2.3177560E+02
 1.3125704E+01  2.3160149E+02
 1.3150825E+01  2.3137085E+02
 1.3175946E+01  2.3132945E+02
 1.3201067E+01  2.3128812E+02
 1.3226188E+01  2.3111494E+02
 1.3251308E+01  2.3103812E+02
 1.3276429E+01  2.3105138E+02
 1.3301551E+01  2.3104994E+02
 1.3326672E+01  2.3086757E+02
 1.3351792E+01  2.3055809E+02
 1.3376913E+01  2.3020128E+02
 1.3402035E+01  2.2981305E+02
 1.3427155E+01  2.2948972E+02
 1.3452276E+01  2.2914090E+02
 1.3477397E+01  2.2881491E+02
 1.3502519E+01  2.2859131E+02
 1.3527639E+01  2.2826093E+02
 1.3552760E+01  2.2798869E+02
 1.3577881E+01  2.2771172E+02
 1.3603003E+01  2.2732922E+02
 1.3628123E+01  2.2697270E+02
 1.3653244E+01  2.2669395E+02
 1.3678365E+01  2.2635727E+02
 1.3703486E+01  2.2585435E+02
 1.3728607E+01  2.2544804E+02
 1.3753728E+01  2.2502106E+02
 1.3778849E+01  2.2472456E+02
 1.3803970E+01  2.2435156E+02
 1.3829091E+01  2.2392746E+02
 1.3854212E+01  2.2348109E+02
 1.3879333E+01  2.2291132E+02
 1.3904453E+01  2.2229129E+02
 1.3929575E+01  2.2173456E+02
 1.3954696E+01  2.2149562E+02
 1.3979816E+01  2.2109219E+02
 1.4004937E+01  2.2067883E+02
 1.4030059E+01  2.2047186E+02
 1.4055180E+01  2.2026852E+02
 1.4080300E+01  2.1989629E+02
 1.4105421E+01  2.1946539E+02
 1.4130543E+01  2.1898010E+02
 1.4155663E+01  2.1845695E+02
 1.4180784E+01  2.1804877E+02
 1.4205905E+01  2.1749344E+02
 1.4231027E+01  2.1666907E+02
 1.4256147E+01  2.1601041E+02
 1.4281268E+01  2.1525261E+02
 1.4306389E+01  2.1484460E+02
 1.4331511E+01  2.1457658E+02
 1.4356631E+01  2.1417625E+02
 1.4381752E+01  2.1370290E+02
 1.4406873E+01  2.1320901E+02
 1.4431994E+01  2.1260188E+02
 1.4457115E+01  2.1195338E+02
 1.4482236E+01  2.1143781E+02
 1.4507357E+01  2.1107013E+02
 1.4532477E+01  2.1073093E+02
 1.4557599E+01  2.1012430E+02
 1.4582720E+01  2.0964604E+02
 1.4607841E+01  2.0925124E+02
 1.4632961E+01  2.0872617E+02
 1.4658083E+01  2.0816078E+02
 1.4683204E+01  2.0775082E+02
 1.4708324E+01  2.0747359E+02
 1.4733445E+01  2.0720648E+02
 1.4758567E+01  2.0676700E+02
 1.4783688E+01  2.0631705E+02
 1.4808808E+01  2.0584300E+02
 1.4833929E+01  2.0507886E+02
 1.4859051E+01  2.0436546E+02
 1.4884171E+01  2.0374297E+02
 1.4909292E+01  2.0326198E+02
 1.4934413E+01  2.0285934E+02
 1.4959535E+01  2.0261765E+02
 1.4984655E+01  2.0233856E+02
 1.5009776E+01  2.0194878E+02
 1.5034897E+01  2.0206915E+02
 1.5060019E+01  2.0261220E+02
 1.5085139E+01  2.0385739E+02
 1.5110260E+01  2.0623787E+02
 1.5135381E+01  2.0872939E+02
 1.5160501E+01  2.0928593E+02
 1.5185623E+01  2.0745207E+02
 1.5210744E+01  2.0451288E+02
 1.5235865E+01  2.0177942E+02
 1.5260985E+01  1.9998140E+02
 1.5286107E+01  1.9887410E+02
 1.5311228E+01  1.9813837E+02
 1.5336349E+01  1.9781415E+02
 1.5361469E+01  1.9766083E+02
 1.5386591E+01  1.9697723E+02
 1.5411712E+01  1.9565190E+02
 1.5436832E+01  1.9424184E+02
 1.5461953E+01  1.9294005E+02
 1.5487075E+01  1.9189122E+02
 1.5512196E+01  1.9103610E+02
 1.5537316E+01  1.9045618E+02
 1.5562437E+01  1.9004765E+02
 1.5587559E+01  1.8949756E+02
 1.5612679E+01  1.8882355E+02
 1.5637800E+01  1.8808607E+02
 1.5662921E+01  1.8752351E+02
 1.5688043E+01  1.8703813E+02
 1.5713163E+01  1.8640979E+02
 1.5738284E+01  1.8582854E+02
 1.5763405E+01  1.8547720E+02
 1.5788526E+01  1.8498666E+02
 1.5813647E+01  1.8433652E+02
 1.5838768E+01  1.8384077E+02
 1.5863889E+01  1.8338907E+02
 1.5889009E+01  1.8281065E+02
 1.5914131E+01  1.8222443E+02
 1.5939252E+01  1.8180682E+02
 1.5964373E+01  1.8117270E+02
 1.5989493E+01  1.8045715E+02
 1.6014614E+01  1.7998523E+02
 1.6039736E+01  1.7970354E+02
 1.6064857E+01  1.7922470E+02
 1.6089977E+01  1.7866893E+02
 1.6115099E+01  1.7820480E+02
 1.6140219E+01  1.7782100E+02
 1.6165340E+01  1.7732825E+02
 1.6190462E+01  1.7676855E+02
 1.6215582E+01  1.7619832E+02
 1.6240704E+01  1.7553734E+02
 1.6265825E+01  1.7504900E+02
 1.6290945E+01  1.7461421E+02
 1.6316067E+01  1.7419548E+02
 1.6341187E+01  1.7365558E+02
 1.6366308E+01  1.7310187E+02
 1.6391430E+01  1.7261984E+02
 1.6416550E+01  1.7225781E+02
 1.6441671E+01  1.7183826E+02
 1.6466791E+01  1.7130125E+02
 1.6491913E+01  1.7082146E+02
 1.6517035E+01  1.7042911E+02
 1.6542154E+01  1.7013341E+02
 1.6567276E+01  1.6972951E+02
 1.6592398E+01  1.6927335E+02
 1.6617517E+01  1.6881917E+02
 1.6642639E+01  1.6837505E+02
 1.6667759E+01  1.6784303E+02
 1.6692881E+01  1.6721388E+02
 1.6718002E+01  1.6663503E+02
 1.6743122E+01  1.6631953E+02
 1.6768244E+01  1.6601773E+02
 1.6793365E+01  1.6543587E+02
 1.6818485E+01  1.6455583E+02
 1.6843607E+01  1.6398787E+02
 1.6868727E+01  1.6353349E+02
 1.6893848E+01  1.6304587E+02
 1.6918970E+01  1.6251108E+02
 1.6944090E+01  1.6216342E+02
 1.6969212E+01  1.6205887E+02
 1.6994333E+01  1.6212724E+02
 1.7019453E+01  1.6229439E+02
 1.7044575E+01  1.6235742E+02
 1.7069695E+01  1.6230922E+02
 1.7094816E+01  1.6150415E+02
 1.7119938E+01  1.6033025E+02
 1.7145058E+01  1.5920065E+02
 1.7170179E+01  1.5826358E+02
 1.7195299E+01  1.5761751E+02
 1.7220421E+01  1.5711508E+02
 1.7245543E+01  1.5655940E+02
 1.7270662E+01  1.5609438E+02
 1.7295784E+01  1.5555759E+02
 1.7320906E+01  1.5508247E+02
 1.7346025E+01  1.5469669E+02
 1.7371147E+01  1.5434976E+02
 1.7396267E+01  1.5387538E+02
 1.7421389E+01  1.5321593E+02
 1.7446510E+01  1.5253058E+02
 1.7471630E+01  1.5197855E+02
 1.7496752E+01  1.5135623E+02
 1.7521873E+01  1.5076534E+02
 1.7546993E+01  1.5012532E+02
 1.7572115E+01  1.4947731E+02
 1.7597235E+01  1.4882709E+02
 1.7622356E+01  1.4844312E+02
 1.7647478E+01  1.4809442E+02
 1.7672598E+01  1.4758632E+02
 1.7697720E+01  1.4709483E+02
 1.7722839E+01  1.4666782E+02
 1.7747961E+01  1.4620746E+02
 1.7773083E+01  1.4572850E+02
 1.7798203E+01  1.4538033E+02
 1.7823324E+01  1.4524686E+02
 1.7848446E+01  1.4515894E+02
 1.7873566E+01  1.4481360E+02
 1.7898687E+01  1.4415279E+02
 1.7923807E+01  1.4357739E+02
 1.7948929E+01  1.4359467E+02
 1.7974051E+01  1.4405960E+02
 1.7999170E+01  1.4475870E+02
 1.8024292E+01  1.4522183E+02
 1.8049414E+01  1.4519183E+02
 1.8074533E+01  1.4432401E+02
 1.8099655E+01  1.4277863E+02
 1.8124775E+01  1.4114197E+02
 1.8149897E+01  1.3980722E+02
 1.8175018E+01  1.3886945E+02
 1.8200138E+01  1.3816560E+02
 1.8225260E+01  1.3741241E+02
 1.8250381E+01  1.3665240E+02
 1.8275501E+01  1.3614325E+02
 1.8300623E+01  1.3582399E+02
 1.8325743E+01  1.3548834E+02
 1.8350864E+01  1.3509506E+02
 1.8375986E+01  1.3485052E+02
 1.8401106E+01  1.3464415E+02
 1.8426228E+01  1.3445882E+02
 1.8451347E+01  1.3420474E+02
 1.8476469E+01  1.3374426E+02
 1.8501591E+01  1.3316893E+02
 1.8526711E+01  1.3240350E+02
 1.8551832E+01  1.3154332E+02
 1.8576954E+01  1.3072734E+02
 1.8602074E+01  1.3005186E+02
 1.8627195E+01  1.2956450E+02
 1.8652315E+01  1.2905809E+02
 1.8677437E+01  1.2865979E+02
 1.8702559E+01  1.2808661E+02
 1.8727678E+01  1.2767790E+02
 1.8752800E+01  1.2723735E+02
 1.8777922E+01  1.2685258E+02
 1.8803041E+01  1.2642540E+02
 1.8828163E+01  1.2590884E+02
 1.8853283E+01  1.2540593E+02
 1.8878405E+01  1.2492459E+02
 1.8903526E+01  1.2448904E+02
 1.8928646E+01  1.2419748E+02
 1.8953768E+01  1.2389323E+02
 1.8978888E+01  1.2360069E+02
 1.9004009E+01  1.2326851E+02
 1.9029131E+01  1.2303588E+02
 1.9054251E+01  1.2293029E+02
 1.9079372E+01  1.2280411E+02
 1.9104494E+01  1.2244643E+02
 1.9129614E+01  1.2205857E+02
 1.9154736E+01  1.2180144E+02
 1.9179855E+01  1.2141724E+02
 1.9204977E+01  1.2093379E+02
 1.9230099E+01  1.2041806E+02
 1.9255219E+01  1.1990903E+02
 1.9280340E+01  1.1935877E+02
 1.9305462E+01  1.1866833E+02
 1.9330582E+01  1.1808176E+02
 1.9355703E+01  1.1759998E+02
 1.9380823E+01  1.1728438E+02
 1.9405945E+01  1.1696152E+02
 1.9431067E+01  1.1668408E+02
 1.9456186E+01  1.1633144E+02
 1.9481308E+01  1.1612514E+02
 1.9506430E+01  1.1596700E+02
 1.9531549E+01  1.1609880E+02
 1.9556671E+01  1.1667078E+02
 1.9581791E+01  1.1781365E+02
 1.9606913E+01  1.2040170E+02
 1.9632034E+01  1.2662692E+02
 1.9657154E+01  1.3922240E+02
 1.9682276E+01  1.5735371E+02
 1.9707396E+01  1.7125208E+02
 1.9732517E+01  1.7125386E+02
 1.9757639E+01  1.5745766E+02
 1.9782759E+01  1.3921436E+02
 1.9807880E+01  1.2542117E+02
 1.9833002E+01  1.1780959E+02
 1.9858122E+01  1.1405304E+02
 1.9883244E+01  1.1193307E+02
 1.9908363E+01  1.1056876E+02
 1.9933485E+01  1.0956219E+02
 1.9958607E+01  1.0883701E+02
 1.9983727E+01  1.0832674E+02
 2.0008848E+01  1.0793151E+02
 2.0033970E+01  1.0755392E+02
 2.0059090E+01  1.0711330E+02
 2.0084211E+01  1.0668139E+02
 2.0109331E+01  1.0622765E+02
 2.0134453E+01  1.0591702E+02
 2.0159575E+01  1.0563955E+02
 2.0184694E+01  1.0523541E+02
 2.0209816E+01  1.0475261E+02
 2.0234938E+01  1.0431396E+02
 2.0260057E+01  1.0388969E+02
 2.0285179E+01  1.0361736E+02
 2.0310299E+01  1.0347374E+02
 2.0335421E+01  1.0333489E+02
 2.0360542E+01  1.0295120E+02
 2.0385662E+01  1.0253599E+02
 2.0410784E+01  1.0218643E+02
 2.0435904E+01  1.0200542E+02
 2.0461025E+01  1.0175626E+02
 2.0486147E+01  1.0147012E+02
 2.0511267E+01  1.0118027E+02
 2.0536388E+01  1.0089523E+02
 2.0561510E+01  1.0065727E+02
 2.0586630E+01  1.0040176E+02
 2.0611752E+01  1.0020404E+02
 2.0636871E+01  9.9947762E+01
 2.0661993E+01  9.9769440E+01
 2.0687115E+01  9.9541710E+01
 2.0712234E+01  9.9247253E+01
 2.0737356E+01  9.8975754E+01
 2.0762478E+01  9.8775581E+01
 2.0787598E+01  9.8641434E+01
 2.0812719E+01  9.8577080E+01
 2.0837839E+01  9.8450241E+01
 2.0862961E+01  9.8282135E+01
 2.0888083E+01  9.8128265E+01
 2.0913202E+01  9.7980385E+01
 2.0938324E+01  9.8006233E+01
 2.0963444E+01  9.7910240E+01
 2.0988565E+01  9.7505295E+01
 2.1013687E+01  9.7105743E+01
 2.1038807E+01  9.6771683E+01
 2.1063929E+01  9.6457336E+01
 2.1089050E+01  9.6209145E+01
 2.1114170E+01  9.5945969E+01
 2.1139292E+01  9.5709923E+01
 2.1164412E+01  9.5597992E+01
 2.1189533E+01  9.5426666E+01
 2.1214655E+01  9.5300041E+01
 2.1239775E+01  9.5219475E+01
 2.1264896E+01  9.5068085E+01
 2.1290018E+01  9.4865852E+01
 2.1315138E+01  9.4694916E+01
 2.1340260E+01  9.4642105E+01
 2.1365379E+01  9.4622322E+01
 2.1390501E+01  9.4670456E+01
 2.1415623E+01  9.4589508E+01
 2.1440742E+01  9.4524651E+01
 2.1465864E+01  9.4629128E+01
 2.1490986E+01  9.4724113E+01
 2.1516106E+01  9.4890762E+01
 2.1541227E+01  9.5048203E+01
 2.1566347E+01  9.5455727E+01
 2.1591469E+01  9.6192978E+01
 2.1616590E+01  9.7493263E+01
 2.1641710E+01  9.9165154E+01
 2.1666832E+01  1.0126469E+02
 2.1691952E+01  1.0320147E+02
 2.1717073E+01  1.0439339E+02
 2.1742195E+01  1.0510738E+02
 2.1767315E+01  1.0647857E+02
 2.1792437E+01  1.0913336E+02
 2.1817558E+01  1.1160217E+02
 2.1842678E+01  1.1197057E+02
 2.1867800E+01  1.0915202E+02
 2.1892920E+01  1.0456002E+02
 2.1918041E+01  1.0017149E+02
 2.1943163E+01  9.7198540E+01
 2.1968283E+01  9.5673042E+01
 2.1993404E+01  9.5182678E+01
 2.2018526E+01  9.5679924E+01
 2.2043646E+01  9.7299873E+01
 2.2068768E+01  1.0000161E+02
 2.2093887E+01  1.0257256E+02
 2.2119009E+01  1.0318740E+02
 2.2144131E+01  1.0124834E+02
 2.2169250E+01  9.8292290E+01
 2.2194372E+01  9.5872871E+01
 2.2219492E+01  9.4056084E+01
 2.2244614E+01  9.2713676E+01
 2.2269735E+01  9.1743256E+01
 2.2294855E+01  9.1045891E+01
 2.2319977E+01  9.0727028E+01
 2.2345098E+01  9.0586617E+01
 2.2370218E+01  9.0417397E+01
 2.2395340E+01  9.0265938E+01
 2.2420460E+01  9.0201630E+01
 2.2445581E+01  9.0046974E+01
 2.2470703E+01  8.9998894E+01
 2.2495823E+01  8.9973793E+01
 2.2520945E+01  8.9836571E+01
 2.2546066E+01  8.9798050E+01
 2.2571186E+01  8.9726173E+01
 2.2596308E+01  8.9658264E+01
 2.2621428E+01  8.9667007E+01
 2.2646549E+01  8.9656960E+01
 2.2671671E+01  8.9611343E+01
 2.2696791E+01  8.9650887E+01
 2.2721912E+01  8.9736191E+01
 2.2747034E+01  8.9839951E+01
 2.2772154E+01  8.9869576E+01
 2.2797276E+01  8.9903702E+01
 2.2822395E+01  8.9999504E+01
 2.2847517E+01  9.0177437E+01
 2.2872639E+01  9.0238220E+01
 2.2897758E+01  9.0152168E+01
 2.2922880E+01  9.0153381E+01
 2.2948000E+01  9.0182030E+01
 2.2973122E+01  9.0233315E+01
 2.2998243E+01  9.0247932E+01
 2.3023363E+01  9.0200897E+01
 2.3048485E+01  9.0179016E+01
 2.3073606E+01  9.0302124E+01
 2.3098726E+01  9.0524590E+01
 2.3123848E+01  9.0661674E+01
 2.3148968E+01  9.0773376E+01
 2.3174089E+01  9.0981819E+01
 2.3199211E+01  9.1261803E+01
 2.3224331E+01  9.1546387E+01
 2.3249453E+01  9.1915955E+01
 2.3274574E+01  9.2344826E+01
 2.3299694E+01  9.2595184E+01
 2.3324816E+01  9.2626282E+01
 2.3349936E+01  9.2424438E+01
 2.3375057E+01  9.2100441E+01
 2.3400179E+01  9.1872627E+01
 2.3425299E+01  9.1716232E+01
 2.3450420E+01  9.1723740E+01
 2.3475540E+01  9.1821281E+01
 2.3500662E+01  9.1950523E+01
 2.3525784E+01  9.1955276E+01
 2.3550903E+01  9.1948090E+01
 2.3576025E+01  9.1979927E+01
 2.3601147E+01  9.2155884E+01
 2.3626266E+01  9.2392487E+01
 2.3651388E+01  9.2684052E+01
 2.3676508E+01  9.3023048E+01
 2.3701630E+01  9.3284454E+01
 2.3726751E+01  9.3520699E+01
 2.3751871E+01  9.3768295E+01
 2.3776993E+01  9.3989227E+01
 2.3802114E+01  9.4103477E+01
 2.3827234E+01  9.4070679E+01
 2.3852356E+01  9.3890938E+01
 2.3877476E+01  9.3864540E+01
 2.3902597E+01  9.3933945E+01
 2.3927719E+01  9.4096519E+01
 2.3952839E+01  9.4481438E+01
 2.3977961E+01  9.5028221E+01
 2.4003082E+01  9.5686089E+01
 2.4028202E+01  9.6468781E+01
 2.4053324E+01  9.7417145E+01
 2.4078444E+01  9.8291061E+01
 2.4103565E+01  9.8641670E+01
 2.4128687E+01  9.8448425E+01
 2.4153807E+01  9.7983246E+01
 2.4178928E+01  9.7528931E+01
 2.4204048E+01  9.7125633E+01
 2.4229170E+01  9.6883286E+01
 2.4254292E+01  9.6866180E+01
 2.4279411E+01  9.6829468E+01
 2.4304533E+01  9.6880943E+01
 2.4329655E+01  9.7207542E+01
 2.4354774E+01  9.7722900E+01
 2.4379896E+01  9.8099113E+01
 2.4405016E+01  9.8419876E+01
 2.4430138E+01  9.8767311E+01
 2.4455259E+01  9.9075294E+01
 2.4480379E+01  9.9242722E+01
 2.4505501E+01  9.9232300E+01
 2.4530622E+01  9.9098412E+01
 2.4555742E+01  9.9033707E+01
 2.4580864E+01  9.9065880E+01
 2.4605984E+01  9.9035805E+01
 2.4631105E+01  9.9094971E+01
 2.4656227E+01  9.9181923E+01
 2.4681347E+01  9.9437294E+01
 2.4706469E+01  9.9796234E+01
 2.4731590E+01  9.9997444E+01
 2.4756710E+01  1.0024985E+02
 2.4781832E+01  1.0043974E+02
 2.4806952E+01  1.0054650E+02
 2.4832073E+01  1.0077793E+02
 2.4857195E+01  1.0132321E+02
 2.4882315E+01  1.0197604E+02
 2.4907436E+01  1.0284059E+02
 2.4932556E+01  1.0373537E+02
 2.4957678E+01  1.0463887E+02
 2.4982800E+01  1.0522285E+02
 2.5007919E+01  1.0518389E+02
 2.5033041E+01  1.0463348E+02
 2.5058163E+01  1.0413609E+02
 2.5083282E+01  1.0393661E+02
 2.5108404E+01  1.0393303E+02
 2.5133524E+01  1.0406829E+02
 2.5158646E+01  1.0422806E+02
 2.5183767E+01  1.0426826E+02
 2.5208887E+01  1.0448046E+02
 2.5234009E+01  1.0481543E+02
 2.5259130E+01  1.0512376E+02
 2.5284250E+01  1.0546031E+02
 2.5309372E+01  1.0559812E+02
 2.5334492E+01  1.0579873E+02
 2.5359613E+01  1.0600525E+02
 2.5384735E+01  1.0624428E+02
 2.5409855E+01  1.0657458E+02
 2.5434977E+01  1.0684842E+02
 2.5460096E+01  1.0705156E+02
 2.5485218E+01  1.0741971E+02
 2.5510340E+01  1.0795709E+02
 2.5535460E+01  1.0843959E+02
 2.5560581E+01  1.0876265E+02
 2.5585703E+01  1.0896503E+02
 2.5610823E+01  1.0921980E+02
 2.5635944E+01  1.0956461E+02
 2.5661064E+01  1.0998263E+02
 2.5686186E+01  1.1055443E+02
 2.5711308E+01  1.1119824E+02
 2.5736427E+01  1.1165128E+02
 2.5761549E+01  1.1185569E+02
 2.5786671E+01  1.1187700E+02
 2.5811790E+01  1.1186066E+02
 2.5836912E+01  1.1183240E+02
 2.5862032E+01  1.1181064E+02
 2.5887154E+01  1.1189211E+02
 2.5912275E+01  1.1196236E+02
 2.5937395E+01  1.1204026E+02
 2.5962517E+01  1.1225222E+02
 2.5987638E+01  1.1257592E+02
 2.6012758E+01  1.1298826E+02
 2.6037880E+01  1.1327412E+02
 2.6063000E+01  1.1365428E+02
 2.6088121E+01  1.1401393E+02
 2.6113243E+01  1.1436416E+02
 2.6138363E+01  1.1466964E+02
 2.6163485E+01  1.1486275E+02
 2.6188604E+01  1.1528272E+02
 2.6213726E+01  1.1592363E+02
 2.6238848E+01  1.1655021E+02
 2.6263968E+01  1.1722118E+02
 2.6289089E+01  1.1755479E+02
 2.6314211E+01  1.1736543E+02
 2.6339331E+01  1.1693224E+02
 2.6364452E+01  1.1677770E+02
 2.6389572E+01  1.1693955E+02
 2.6414694E+01  1.1706294E+02
 2.6439816E+01  1.1729003E+02
 2.6464935E+01  1.1758752E+02
 2.6490057E+01  1.1790192E+02
 2.6515179E+01  1.1838242E+02
 2.6540298E+01  1.1881063E+02
 2.6565420E+01  1.1910076E+02
 2.6590540E+01  1.1949982E+02
 2.6615662E+01  1.2003742E+02
 2.6640783E+01  1.2054270E+02
 2.6665903E+01  1.2106930E+02
 2.6691025E+01  1.2158219E+02
 2.6716145E+01  1.2211445E+02
 2.6741266E+01  1.2257655E+02
 2.6766388E+01  1.2309182E+02
 2.6791508E+01  1.2335965E+02
 2.6816629E+01  1.2355322E+02
 2.6841751E+01  1.2397336E+02
 2.6866871E+01  1.2448232E+02
 2.6891993E+01  1.2505272E+02
 2.6917112E+01  1.2582399E+02
 2.6942234E+01  1.2677944E+02
 2.6967356E+01  1.2814963E+02
 2.6992476E+01  1.3041673E+02
 2.7017597E+01  1.3462953E+02
 2.7042719E+01  1.4270644E+02
 2.7067839E+01  1.5542905E+02
 2.7092960E+01  1.6857022E+02
 2.7118080E+01  1.7857430E+02
 2.7143202E+01  1.8218327E+02
 2.7168324E+01  1.7595480E+02
 2.7193443E+01  1.6366809E+02
 2.7218565E+01  1.5437225E+02
 2.7243687E+01  1.5145241E+02
 2.7268806E+01  1.5578139E+02
 2.7293928E+01  1.6976622E+02
 2.7319048E+01  1.9790990E+02
 2.7344170E+01  2.4094585E+02
 2.7369291E+01  2.8826559E+02
 2.7394411E+01  3.1807813E+02
 2.7419533E+01  3.1646790E+02
 2.7444653E+01  2.8794455E+02
 2.7469774E+01  2.4292044E+02
 2.7494896E+01  1.9953033E+02
 2.7520016E+01  1.6906696E+02
 2.7545137E+01  1.5253212E+02
 2.7570259E+01  1.4412866E+02
 2.7595379E+01  1.3944237E+02
 2.7620501E+01  1.3644836E+02
 2.7645620E+01  1.3430431E+02
 2.7670742E+01  1.3284828E+02
 2.7695864E+01  1.3180585E+02
 2.7720984E+01  1.3105280E+02
 2.7746105E+01  1.3046002E+02
 2.7771227E+01  1.3002151E+02
 2.7796347E+01  1.2966084E+02
 2.7821468E+01  1.2930734E+02
 2.7846588E+01  1.2908345E+02
 2.7871710E+01  1.2878746E+02
 2.7896832E+01  1.2850836E+02
 2.7921951E+01  1.2825862E+02
 2.7947073E+01  1.2806316E+02
 2.7972195E+01  1.2793523E+02
 2.7997314E+01  1.2791113E+02
 2.8022436E+01  1.2785053E+02
 2.8047556E+01  1.2765502E+02
 2.8072678E+01  1.2751672E+02
 2.8097799E+01  1.2749108E+02
 2.8122919E+01  1.2731786E+02
 2.8148041E+01  1.2719035E+02
 2.8173161E+01  1.2717553E+02
 2.8198282E+01  1.2710800E+02
 2.8223404E+01  1.2702518E+02
 2.8248524E+01  1.2674037E+02
 2.8273645E+01  1.2661488E+02
 2.8298767E+01  1.2661337E+02
 2.8323887E+01  1.2647895E+02
 2.8349009E+01  1.2623173E+02
 2.8374128E+01  1.2609684E+02
 2.8399250E+01  1.2607892E+02
 2.8424372E+01  1.2595965E+02
 2.8449492E+01  1.2574249E+02
 2.8474613E+01  1.2571332E+02
 2.8499735E+01  1.2581879E+02
 2.8524855E+01  1.2574270E+02
 2.8549976E+01  1.2567075E+02
 2.8575096E+01  1.2581272E+02
 2.8600218E+01  1.2594613E+02
 2.8625340E+01  1.2607360E+02
 2.8650459E+01  1.2650354E+02
 2.8675581E+01  1.2753410E+02
 2.8700701E+01  1.2934528E+02
 2.8725822E+01  1.3297881E+02
 2.8750944E+01  1.3962195E+02
 2.8776064E+01  1.4931754E+02
 2.8801186E+01  1.5745819E+02
 2.8826307E+01  1.5944656E+02
 2.8851427E+01  1.5524214E+02
 2.8876549E+01  1.4737418E+02
 2.8901669E+01  1.3840433E+02
 2.8926790E+01  1.3176802E+02
 2.8951912E+01  1.2811671E+02
 2.8977032E+01  1.2635225E+02
 2.9002153E+01  1.2552539E+02
 2.9027275E+01  1.2547457E+02
 2.9052395E+01  1.2609481E+02
 2.9077517E+01  1.2699119E+02
 2.9102636E+01  1.2771462E+02
 2.9127758E+01  1.2789928E+02
 2.9152880E+01  1.2743607E+02
 2.9177999E+01  1.2657426E+02
 2.9203121E+01  1.2550858E+02
 2.9228243E+01  1.2460633E+02
 2.9253363E+01  1.2387090E+02
 2.9278484E+01  1.2342068E+02
 2.9303604E+01  1.2336371E+02
 2.9328726E+01  1.2322274E+02
 2.9353848E+01  1.2319075E+02
 2.9378967E+01  1.2328571E+02
 2.9404089E+01  1.2338609E+02
 2.9429209E+01  1.2352568E+02
 2.9454330E+01  1.2367422E+02
 2.9479452E+01  1.2377473E+02
 2.9504572E+01  1.2406760E+02
 2.9529694E+01  1.2469232E+02
 2.9554815E+01  1.2593786E+02
 2.9579935E+01  1.2781631E+02
 2.9605057E+01  1.2983279E+02
 2.9630177E+01  1.3106917E+02
 2.9655298E+01  1.3096759E+02
 2.9680420E+01  1.2998511E+02
 2.9705540E+01  1.2907736E+02
 2.9730661E+01  1.2831454E+02
 2.9755783E+01  1.2793055E+02
 2.9780903E+01  1.2765339E+02
 2.9806025E+01  1.2689462E+02
 2.9831144E+01  1.2572246E+02
 2.9856266E+01  1.2425402E+02
 2.9881388E+01  1.2276311E+02
 2.9906507E+01  1.2157207E+02
 2.9931629E+01  1.2051060E+02
 2.9956749E+01  1.1955979E+02
 2.9981871E+01  1.1892157E+02
 3.0006992E+01  1.1852788E+02
 3.0032112E+01  1.1833593E+02
 3.0057234E+01  1.1818805E+02
 3.0082355E+01  1.1789672E+02
 3.0107475E+01  1.1770020E+02
 3.0132597E+01  1.1772244E+02
 3.0157717E+01  1.1756763E+02
 3.0182838E+01  1.1735691E+02
 3.0207960E+01  1.1742046E+02
 3.0233080E+01  1.1750665E+02
 3.0258202E+01  1.1735711E+02
 3.0283323E+01  1.1724960E+02
 3.0308443E+01  1.1711923E+02
 3.0333565E+01  1.1672552E+02
 3.0358685E+01  1.1623861E+02
 3.0383806E+01  1.1579185E+02
 3.0408928E+01  1.1525951E+02
 3.0434048E+01  1.1483656E+02
 3.0459169E+01  1.1451775E+02
 3.0484291E+01  1.1436629E+02
 3.0509411E+01  1.1461510E+02
 3.0534533E+01  1.1525598E+02
 3.0559652E+01  1.1620886E+02
 3.0584774E+01  1.1798275E+02
 3.0609896E+01  1.2124213E+02
 3.0635015E+01  1.2551852E+02
 3.0660137E+01  1.2944749E+02
 3.0685257E+01  1.3265082E+02
 3.0710379E+01  1.3363162E+02
 3.0735500E+01  1.3138533E+02
 3.0760620E+01  1.2768750E+02
 3.0785742E+01  1.2318179E+02
 3.0810863E+01  1.1837621E+02
 3.0835983E+01  1.1487283E+02
 3.0861105E+01  1.1287652E+02
 3.0886225E+01  1.1179260E+02
 3.0911346E+01  1.1110268E+02
 3.0936468E+01  1.1066998E+02
 3.0961588E+01  1.1040281E+02
 3.0986710E+01  1.1008067E+02
 3.1011831E+01  1.0984986E+02
 3.1036951E+01  1.0965184E+02
 3.1062073E+01  1.0947163E+02
 3.1087193E+01  1.0934357E+02
 3.1112314E+01  1.0920805E+02
 3.1137436E+01  1.0915621E+02
 3.1162556E+01  1.0902964E+02
 3.1187677E+01  1.0897461E+02
 3.1212797E+01  1.0885653E+02
 3.1237919E+01  1.0851969E+02
 3.1263041E+01  1.0834771E+02
 3.1288160E+01  1.0815735E+02
 3.1313282E+01  1.0805771E+02
 3.1338404E+01  1.0812731E+02
 3.1363523E+01  1.0843218E+02
 3.1388645E+01  1.0878172E+02
 3.1413765E+01  1.0897395E+02
 3.1438887E+01  1.0903159E+02
 3.1464008E+01  1.0895493E+02
 3.1489128E+01  1.0868624E+02
 3.1514250E+01  1.0834881E+02
 3.1539371E+01  1.0806129E+02
 3.1564491E+01  1.0810770E+02
 3.1589613E+01  1.0852842E+02
 3.1614733E+01  1.0898633E+02
 3.1639854E+01  1.0928192E+02
 3.1664976E+01  1.0924138E+02
 3.1690096E+01  1.0885388E+02
 3.1715218E+01  1.0812887E+02
 3.1740339E+01  1.0736816E+02
 3.1765459E+01  1.0675338E+02
 3.1790581E+01  1.0635717E+02
 3.1815701E+01  1.0608150E+02
 3.1840822E+01  1.0576366E+02
 3.1865944E+01  1.0569027E+02
 3.1891064E+01  1.0592490E+02
 3.1916185E+01  1.0637233E+02
 3.1941305E+01  1.0676689E+02
 3.1966427E+01  1.0744815E+02
 3.1991549E+01  1.0835393E+02
 3.2016670E+01  1.0940054E+02
 3.2041790E+01  1.1005668E+02
 3.2066910E+01  1.0999194E+02
 3.2092033E+01  1.0927515E+02
 3.2117153E+01  1.0812608E+02
 3.2142273E+01  1.0694083E+02
 3.2167397E+01  1.0608598E+02
 3.2192516E+01  1.0535029E+02
 3.2217636E+01  1.0459715E+02
 3.2242756E+01  1.0409649E+02
 3.2267879E+01  1.0371363E+02
 3.2292999E+01  1.0327373E+02
 3.2318119E+01  1.0287914E+02
 3.2343243E+01  1.0281911E+02
 3.2368362E+01  1.0267989E+02
 3.2393482E+01  1.0237182E+02
 3.2418606E+01  1.0206091E+02
 3.2443726E+01  1.0185853E+02
 3.2468845E+01  1.0167043E+02
 3.2493969E+01  1.0164095E+02
 3.2519089E+01  1.0152590E+02
 3.2544209E+01  1.0140090E+02
 3.2569328E+01  1.0137518E+02
 3.2594452E+01  1.0159264E+02
 3.2619572E+01  1.0184996E+02
 3.2644691E+01  1.0213076E+02
 3.2669815E+01  1.0245219E+02
 3.2694935E+01  1.0325344E+02
 3.2720055E+01  1.0500522E+02
 3.2745178E+01  1.0814964E+02
 3.2770298E+01  1.1330518E+02
 3.2795418E+01  1.2000238E+02
 3.2820541E+01  1.2718067E+02
 3.2845661E+01  1.3220305E+02
 3.2870781E+01  1.3291541E+02
 3.2895905E+01  1.2853087E+02
 3.2921024E+01  1.2059931E+02
 3.2946144E+01  1.1237112E+02
 3.2971264E+01  1.0638656E+02
 3.2996387E+01  1.0275665E+02
 3.3021507E+01  1.0072173E+02
 3.3046627E+01  9.9536095E+01
 3.3071751E+01  9.8854660E+01
 3.3096870E+01  9.8351158E+01
 3.3121990E+01  9.8077057E+01
 3.3147114E+01  9.7762398E+01
 3.3172234E+01  9.7421074E+01
 3.3197353E+01  9.7365326E+01
 3.3222477E+01  9.7438744E+01
 3.3247597E+01  9.7806503E+01
 3.3272717E+01  9.8360519E+01
 3.3297836E+01  9.9092896E+01
 3.3322960E+01  9.9701141E+01
 3.3348080E+01  9.9921486E+01
 3.3373199E+01  9.9767967E+01
 3.3398323E+01  9.9270767E+01
 3.3423443E+01  9.8574593E+01
 3.3448563E+01  9.7674416E+01
 3.3473686E+01  9.6998367E+01
 3.3498806E+01  9.6765503E+01
 3.3523926E+01  9.6623291E+01
 3.3549049E+01  9.6520035E+01
 3.3574169E+01  9.6423035E+01
 3.3599289E+01  9.6311989E+01
 3.3624413E+01  9.6237411E+01
 3.3649532E+01  9.6141220E+01
 3.3674652E+01  9.6134331E+01
 3.3699772E+01  9.6101631E+01
 3.3724895E+01  9.6138016E+01
 3.3750015E+01  9.6179245E+01
 3.3775135E+01  9.6401382E+01
 3.3800259E+01  9.6757530E+01
 3.3825378E+01  9.7312431E+01
 3.3850498E+01  9.8408730E+01
 3.3875622E+01  9.9477676E+01
 3.3900742E+01  9.9910156E+01
 3.3925861E+01  9.9694786E+01
 3.3950985E+01  9.9372055E+01
 3.3976105E+01  9.9047577E+01
 3.4001225E+01  9.8436584E+01
 3.4026344E+01  9.7542259E+01
 3.4051468E+01  9.6802132E+01
 3.4076588E+01  9.6291527E+01
 3.4101707E+01  9.6094376E+01
 3.4126831E+01  9.6045891E+01
 3.4151951E+01  9.6049873E+01
 3.4177071E+01  9.6030426E+01
 3.4202194E+01  9.6045433E+01
 3.4227314E+01  9.6042938E+01
 3.4252434E+01  9.6189934E+01
 3.4277557E+01  9.6381149E+01
 3.4302677E+01  9.6552963E+01
 3.4327797E+01  9.6608597E+01
 3.4352921E+01  9.6626068E+01
 3.4378040E+01  9.6714142E+01
 3.4403160E+01  9.6811256E+01
 3.4428280E+01  9.7084297E+01
 3.4453403E+01  9.7127831E+01
 3.4478523E+01  9.7088150E+01
 3.4503643E+01  9.6988174E+01
 3.4528767E+01  9.6920441E+01
 3.4553886E+01  9.6970940E+01
 3.4579006E+01  9.7055962E+01
 3.4604130E+01  9.7156013E+01
 3.4629250E+01  9.7332626E+01
 3.4654369E+01  9.7510979E+01
 3.4679493E+01  9.7495407E+01
 3.4704613E+01  9.7475662E+01
 3.4729733E+01  9.7592628E+01
 3.4754852E+01  9.7768250E+01
 3.4779976E+01  9.7725426E+01
 3.4805096E+01  9.7663757E+01
 3.4830215E+01  9.7857307E+01
 3.4855339E+01  9.7984726E+01
 3.4880459E+01  9.7966347E+01
 3.4905579E+01  9.8093117E+01
 3.4930702E+01  9.8257210E+01
 3.4955822E+01  9.8414742E+01
 3.4980942E+01  9.8478569E+01
 3.5006065E+01  9.8725868E+01
 3.5031185E+01  9.8803825E+01
 3.5056305E+01  9.9003761E+01
 3.5081425E+01  9.9105705E+01
 3.5106548E+01  9.9256454E+01
 3.5131668E+01  9.9524124E+01
 3.5156788E+01  9.9774414E+01
 3.5181911E+01  1.0001703E+02
 3.5207031E+01  1.0021089E+02
 3.5232151E+01  1.0050937E+02
 3.5257275E+01  1.0071913E+02
 3.5282394E+01  1.0087001E+02
 3.5307514E+01  1.0124127E+02
 3.5332638E+01  1.0161495E+02
 3.5357758E+01  1.0201768E+02
 3.5382877E+01  1.0270372E+02
 3.5408001E+01  1.0365211E+02
 3.5433121E+01  1.0552241E+02
 3.5458241E+01  1.0882455E+02
 3.5483360E+01  1.1404847E+02
 3.5508484E+01  1.2097288E+02
 3.5533604E+01  1.2892487E+02
 3.5558723E+01  1.3599559E+02
 3.5583847E+01  1.3952879E+02
 3.5608967E+01  1.3842561E+02
 3.5634087E+01  1.3317372E+02
 3.5659210E+01  1.2541594E+02
 3.5684330E+01  1.1783515E+02
 3.5709450E+01  1.1205784E+02
 3.5734573E+01  1.0830546E+02
 3.5759693E+01  1.0608843E+02
 3.5784813E+01  1.0481151E+02
 3.5809933E+01  1.0417199E+02
 3.5835056E+01  1.0388847E+02
 3.5860176E+01  1.0356224E+02
 3.5885296E+01  1.0334068E+02
 3.5910419E+01  1.0318515E+02
 3.5935539E+01  1.0314006E+02
 3.5960659E+01  1.0326185E+02
 3.5985783E+01  1.0324136E+02
 3.6010902E+01  1.0317552E+02
 3.6036022E+01  1.0317262E+02
 3.6061146E+01  1.0327153E+02
 3.6086266E+01  1.0342059E+02
 3.6111385E+01  1.0361746E+02
 3.6136509E+01  1.0374847E+02
 3.6161629E+01  1.0387831E+02
 3.6186749E+01  1.0393925E+02
 3.6211868E+01  1.0402848E+02
 3.6236992E+01  1.0425070E+02
 3.6262112E+01  1.0462297E+02
 3.6287231E+01  1.0501668E+02
 3.6312355E+01  1.0535941E+02
 3.6337475E+01  1.0570504E+02
 3.6362595E+01  1.0621938E+02
 3.6387718E+01  1.0707790E+02
 3.6412838E+01  1.0838510E+02
 3.6437958E+01  1.0995574E+02
 3.6463081E+01  1.1145708E+02
 3.6488201E+01  1.1251954E+02
 3.6513321E+01  1.1310192E+02
 3.6538441E+01  1.1328609E+02
 3.6563564E+01  1.1312221E+02
 3.6588684E+01  1.1273705E+02
 3.6613804E+01  1.1238516E+02
 3.6638927E+01  1.1221170E+02
 3.6664047E+01  1.1239632E+02
 3.6689167E+01  1.1260822E+02
 3.6714291E+01  1.1227312E+02
 3.6739410E+01  1.1143220E+02
 3.6764530E+01  1.1047930E+02
 3.6789654E+01  1.0981549E+02
 3.6814774E+01  1.0936958E+02
 3.6839893E+01  1.0895945E+02
 3.6865017E+01  1.0888277E+02
 3.6890137E+01  1.0924854E+02
 3.6915257E+01  1.0943596E+02
 3.6940376E+01  1.0900898E+02
 3.6965500E+01  1.0865021E+02
 3.6990620E+01  1.0846992E+02
 3.7015739E+01  1.0831352E+02
 3.7040863E+01  1.0840343E+02
 3.7065983E+01  1.0857911E+02
 3.7091103E+01  1.0874910E+02
 3.7116226E+01  1.0864909E+02
 3.7141346E+01  1.0866361E+02
 3.7166466E+01  1.0877681E+02
 3.7191589E+01  1.0882885E+02
 3.7216709E+01  1.0891403E+02
 3.7241829E+01  1.0921070E+02
 3.7266949E+01  1.0946641E+02
 3.7292072E+01  1.0980058E+02
 3.7317192E+01  1.1007018E+02
 3.7342312E+01  1.1035349E+02
 3.7367435E+01  1.1061151E+02
 3.7392555E+01  1.1071871E+02
 3.7417675E+01  1.1085355E+02
 3.7442799E+01  1.1127482E+02
 3.7467918E+01  1.1185529E+02
 3.7493038E+01  1.1224866E+02
 3.7518162E+01  1.1231373E+02
 3.7543282E+01  1.1221986E+02
 3.7568401E+01  1.1175980E+02
 3.7593525E+01  1.1114864E+02
 3.7618645E+01  1.1085619E+02
 3.7643764E+01  1.1076270E+02
 3.7668884E+01  1.1036393E+02
 3.7694008E+01  1.0991380E+02
 3.7719128E+01  1.0954813E+02
 3.7744247E+01  1.0931197E+02
 3.7769371E+01  1.0919915E+02
 3.7794491E+01  1.0894967E+02
 3.7819611E+01  1.0889677E+02
 3.7844734E+01  1.0889397E+02
 3.7869854E+01  1.0896778E+02
 3.7894974E+01  1.0913976E+02
 3.7920097E+01  1.0908714E+02
 3.7945217E+01  1.0911532E+02
 3.7970337E+01  1.0915018E+02
 3.7995457E+01  1.0909335E+02
 3.8020580E+01  1.0924210E+02
 3.8045700E+01  1.0940334E+02
 3.8070820E+01  1.0941667E+02
 3.8095943E+01  1.0952894E+02
 3.8121063E+01  1.0975629E+02
 3.8146183E+01  1.0997108E+02
 3.8171307E+01  1.1015559E+02
 3.8196426E+01  1.1027644E+02
 3.8221546E+01  1.1047506E+02
 3.8246670E+01  1.1065434E+02
 3.8271790E+01  1.1085677E+02
 3.8296909E+01  1.1145371E+02
 3.8322029E+01  1.1337857E+02
 3.8347153E+01  1.1734219E+02
 3.8372272E+01  1.2317132E+02
 3.8397392E+01  1.3068538E+02
 3.8422516E+01  1.3839424E+02
 3.8447636E+01  1.4399806E+02
 3.8472755E+01  1.4677065E+02
 3.8497879E+01  1.4855013E+02
 3.8522999E+01  1.4445160E+02
 3.8548119E+01  1.3467285E+02
 3.8573242E+01  1.2785054E+02
 3.8598362E+01  1.2340686E+02
 3.8623482E+01  1.2010469E+02
 3.8648605E+01  1.1785117E+02
 3.8673725E+01  1.1648878E+02
 3.8698845E+01  1.1587073E+02
 3.8723965E+01  1.1587449E+02
 3.8749088E+01  1.1616093E+02
 3.8774208E+01  1.1598707E+02
 3.8799328E+01  1.1485171E+02
 3.8824451E+01  1.1331908E+02
 3.8849571E+01  1.1175962E+02
 3.8874691E+01  1.1004388E+02
 3.8899815E+01  1.0866130E+02
 3.8924934E+01  1.0785223E+02
 3.8950054E+01  1.0729340E+02
 3.8975178E+01  1.0734474E+02
 3.9000298E+01  1.0737116E+02
 3.9025417E+01  1.0725800E+02
 3.9050537E+01  1.0714063E+02
 3.9075661E+01  1.0730106E+02
 3.9100780E+01  1.0748536E+02
 3.9125900E+01  1.0787819E+02
 3.9151024E+01  1.0844565E+02
 3.9176144E+01  1.0903861E+02
 3.9201263E+01  1.0908383E+02
 3.9226387E+01  1.0879509E+02
 3.9251507E+01  1.0836330E+02
 3.9276627E+01  1.0735753E+02
 3.9301750E+01  1.0656500E+02
 3.9326870E+01  1.0599876E+02
 3.9351990E+01  1.0571589E+02
 3.9377113E+01  1.0559101E+02
 3.9402233E+01  1.0558552E+02
 3.9427353E+01  1.0573936E+02
 3.9452473E+01  1.0583939E+02
 3.9477596E+01  1.0578456E+02
 3.9502716E+01  1.0577980E+02
 3.9527836E+01  1.0557425E+02
 3.9552959E+01  1.0556073E+02
 3.9578079E+01  1.0562132E+02
 3.9603199E+01  1.0552583E+02
 3.9628323E+01  1.0527100E+02
 3.9653442E+01  1.0530576E+02
 3.9678562E+01  1.0518624E+02
 3.9703686E+01  1.0498953E+02
 3.9728806E+01  1.0454060E+02
 3.9753925E+01  1.0433495E+02
 3.9779045E+01  1.0411797E+02
 3.9804169E+01  1.0380806E+02
 3.9829288E+01  1.0352618E+02
 3.9854408E+01  1.0323531E+02
 3.9879532E+01  1.0299755E+02
 3.9904652E+01  1.0275994E+02
 3.9929771E+01  1.0259411E+02
 3.9954895E+01  1.0260947E+02
 3.9980015E+01  1.0258741E+02
 4.0005135E+01  1.0258344E+02
 4.0030258E+01  1.0259228E+02
 4.0055378E+01  1.0263405E+02
 4.0080498E+01  1.0283361E+02
 4.0105621E+01  1.0314669E+02
 4.0130741E+01  1.0324429E+02
 4.0155861E+01  1.0315491E+02
 4.0180981E+01  1.0283627E+02
 4.0206104E+01  1.0255570E+02
 4.0231224E+01  1.0213321E+02
 4.0256344E+01  1.0168259E+02
 4.0281467E+01  1.0147330E+02
 4.0306587E+01  1.0142879E+02
 4.0331707E+01  1.0128073E+02
 4.0356831E+01  1.0116908E+02
 4.0381950E+01  1.0125005E+02
 4.0407070E+01  1.0124732E+02
 4.0432194E+01  1.0124173E+02
 4.0457314E+01  1.0118919E+02
 4.0482433E+01  1.0114649E+02
 4.0507553E+01  1.0109639E+02
 4.0532677E+01  1.0095489E+02
 4.0557796E+01  1.0083285E+02
 4.0582916E+01  1.0095586E+02
 4.0608040E+01  1.0098322E+02
 4.0633160E+01  1.0071799E+02
 4.0658279E+01  1.0069272E+02
 4.0683403E+01  1.0049479E+02
 4.0708523E+01  1.0041064E+02
 4.0733643E+01  1.0035408E+02
 4.0758766E+01  1.0037489E+02
 4.0783886E+01  1.0045562E+02
 4.0809006E+01  1.0059270E+02
 4.0834129E+01  1.0084431E+02
 4.0859249E+01  1.0080943E+02
 4.0884369E+01  1.0067261E+02
 4.0909489E+01  1.0056975E+02
 4.0934612E+01  1.0023608E+02
 4.0959732E+01  1.0002579E+02
 4.0984852E+01  1.0000885E+02
 4.1009975E+01  1.0006273E+02
 4.1035095E+01  1.0008294E+02
 4.1060215E+01  9.9996490E+01
 4.1085339E+01  9.9896927E+01
 4.1110458E+01  9.9780922E+01
 4.1135578E+01  9.9592552E+01
 4.1160702E+01  9.9725883E+01
 4.1185822E+01  9.9912979E+01
 4.1210941E+01  1.0057167E+02
 4.1236061E+01  1.0172762E+02
 4.1261185E+01  1.0333633E+02
 4.1286304E+01  1.0523851E+02
 4.1311424E+01  1.0721230E+02
 4.1336548E+01  1.0838771E+02
 4.1361668E+01  1.0864897E+02
 4.1386787E+01  1.0796831E+02
 4.1411911E+01  1.0724399E+02
 4.1437031E+01  1.0642056E+02
 4.1462151E+01  1.0567462E+02
 4.1487274E+01  1.0591142E+02
 4.1512394E+01  1.0771606E+02
 4.1537514E+01  1.1098963E+02
 4.1562634E+01  1.1527579E+02
 4.1587757E+01  1.2042068E+02
 4.1612877E+01  1.2563082E+02
 4.1637997E+01  1.2920355E+02
 4.1663120E+01  1.2963516E+02
 4.1688240E+01  1.2698290E+02
 4.1713360E+01  1.2269148E+02
 4.1738483E+01  1.1792056E+02
 4.1763603E+01  1.1401894E+02
 4.1788723E+01  1.1160700E+02
 4.1813847E+01  1.0980396E+02
 4.1838966E+01  1.0790034E+02
 4.1864086E+01  1.0623052E+02
 4.1889210E+01  1.0451204E+02
 4.1914330E+01  1.0303149E+02
 4.1939449E+01  1.0164382E+02
 4.1964569E+01  9.9987137E+01
 4.1989693E+01  9.8772835E+01
 4.2014812E+01  9.8050667E+01
 4.2039932E+01  9.7582466E+01
 4.2065056E+01  9.7592224E+01
 4.2090176E+01  9.8192528E+01
 4.2115295E+01  9.9262405E+01
 4.2140419E+01  1.0087023E+02
 4.2165539E+01  1.0294469E+02
 4.2190659E+01  1.0546960E+02
 4.2215782E+01  1.0897151E+02
 4.2240902E+01  1.1357656E+02
 4.2266022E+01  1.1945803E+02
 4.2291142E+01  1.2612037E+02
 4.2316265E+01  1.3194548E+02
 4.2341385E+01  1.3544765E+02
 4.2366505E+01  1.3511229E+02
 4.2391628E+01  1.3120909E+02
 4.2416748E+01  1.2537120E+02
 4.2441868E+01  1.1854628E+02
 4.2466991E+01  1.1203781E+02
 4.2492111E+01  1.0673513E+02
 4.2517231E+01  1.0296859E+02
 4.2542355E+01  1.0060605E+02
 4.2567474E+01  9.8901131E+01
 4.2592594E+01  9.7928810E+01
 4.2617718E+01  9.7422852E+01
 4.2642838E+01  9.7029953E+01
 4.2667957E+01  9.6747620E+01
 4.2693077E+01  9.6542320E+01
 4.2718201E+01  9.6582680E+01
 4.2743320E+01  9.6563179E+01
 4.2768440E+01  9.6519600E+01
 4.2793564E+01  9.6556770E+01
 4.2818684E+01  9.6743782E+01
 4.2843803E+01  9.6799103E+01
 4.2868927E+01  9.6928680E+01
 4.2894047E+01  9.7120087E+01
 4.2919167E+01  9.7261429E+01
 4.2944290E+01  9.7256264E+01
 4.2969410E+01  9.7236946E+01
 4.2994530E+01  9.7300293E+01
 4.3019650E+01  9.7427773E+01
 4.3044773E+01  9.7560661E+01
 4.3069893E+01  9.7848557E+01
 4.3095013E+01  9.7941231E+01
 4.3120136E+01  9.7843834E+01
 4.3145256E+01  9.7945900E+01
 4.3170376E+01  9.8326988E+01
 4.3195499E+01  9.8656105E+01
 4.3220619E+01  9.8917976E+01
 4.3245739E+01  9.9158554E+01
 4.3270863E+01  9.9400246E+01
 4.3295982E+01  9.9436440E+01
 4.3321102E+01  9.9579758E+01
 4.3346226E+01  9.9615448E+01
 4.3371346E+01  9.9673233E+01
 4.3396465E+01  9.9790245E+01
 4.3421585E+01  1.0002225E+02
 4.3446709E+01  1.0050002E+02
 4.3471828E+01  1.0105711E+02
 4.3496948E+01  1.0160034E+02
 4.3522072E+01  1.0246026E+02
 4.3547192E+01  1.0381938E+02
 4.3572311E+01  1.0565694E+02
 4.3597435E+01  1.0700713E+02
 4.3622555E+01  1.0639162E+02
 4.3647675E+01  1.0443075E+02
 4.3672798E+01  1.0253871E+02
 4.3697918E+01  1.0117731E+02
 4.3723038E+01  1.0018888E+02
 4.3748158E+01  9.9719688E+01
 4.3773281E+01  9.9719719E+01
 4.3798401E+01  9.9882751E+01
 4.3823521E+01  1.0011450E+02
 4.3848644E+01  1.0022636E+02
 4.3873764E+01  1.0004586E+02
 4.3898884E+01  9.9719002E+01
 4.3924007E+01  9.9411057E+01
 4.3949127E+01  9.9237915E+01
 4.3974247E+01  9.8630249E+01
 4.3999371E+01  9.7851440E+01
 4.4024490E+01  9.7630592E+01
 4.4049610E+01  9.7845558E+01
 4.4074730E+01  9.8133293E+01
 4.4099854E+01  9.8570465E+01
 4.4124973E+01  9.8804703E+01
 4.4150093E+01  9.8836906E+01
 4.4175217E+01  9.9089142E+01
 4.4200336E+01  9.9884552E+01
 4.4225456E+01  1.0073055E+02
 4.4250580E+01  1.0127647E+02
 4.4275700E+01  1.0155614E+02
 4.4300819E+01  1.0149915E+02
 4.4325943E+01  1.0143913E+02
 4.4351063E+01  1.0097437E+02
 4.4376183E+01  9.9814995E+01
 4.4401306E+01  9.8576111E+01
 4.4426426E+01  9.7041702E+01
 4.4451546E+01  9.6890228E+01
 4.4476665E+01  9.6801895E+01
 4.4501789E+01  9.6777237E+01
 4.4526909E+01  9.6859451E+01
 4.4552029E+01  9.7147560E+01
 4.4577152E+01  9.7173149E+01
 4.4602272E+01  9.7358650E+01
 4.4627392E+01  9.7212204E+01
 4.4652515E+01  9.7073837E+01
 4.4677635E+01  9.6231682E+01
 4.4702755E+01  9.6630676E+01
 4.4727879E+01  9.6589500E+01
 4.4752998E+01  9.6546295E+01
 4.4778118E+01  9.6461151E+01
 4.4803238E+01  9.6441536E+01
 4.4828362E+01  9.6229546E+01
 4.4853481E+01  9.6285873E+01
 4.4878601E+01  9.5652710E+01
 4.4903725E+01  9.5811516E+01
 4.4928844E+01  9.5864258E+01
 4.4953964E+01  9.5835487E+01
 4.4979088E+01  9.5783630E+01
 4.5004208E+01  9.5828766E+01
 4.5029327E+01  9.5811813E+01
 4.5054451E+01  9.5640175E+01
 4.5079571E+01  9.5685036E+01
 4.5104691E+01  9.5715431E+01
 4.5129814E+01  9.5089203E+01
 4.5154934E+01  9.5517830E+01
 4.5180054E+01  9.5770782E+01
 4.5205173E+01  9.6005768E+01
 4.5230297E+01  9.6057762E+01
 4.5255417E+01  9.6220993E+01
 4.5280537E+01  9.6197502E+01
 4.5305660E+01  9.6139175E+01
 4.5330780E+01  9.6199982E+01
 4.5355900E+01  9.6177147E+01
 4.5381023E+01  9.6352951E+01
 4.5406143E+01  9.6507584E+01
 4.5431263E+01  9.6507187E+01
 4.5456387E+01  9.6645630E+01
 4.5481506E+01  9.6650009E+01
 4.5506626E+01  9.6468262E+01
 4.5531746E+01  9.6476547E+01
 4.5556870E+01  9.6451355E+01
 4.5581989E+01  9.6300499E+01
 4.5607109E+01  9.6059517E+01
 4.5632233E+01  9.5833832E+01
 4.5657352E+01  9.5803856E+01
 4.5682472E+01  9.5957085E+01
 4.5707596E+01  9.6145386E+01
 4.5732716E+01  9.6396530E+01
 4.5757835E+01  9.6460304E+01
 4.5782959E+01  9.6500694E+01
 4.5808079E+01  9.6632248E+01
 4.5833199E+01  9.6497795E+01
 4.5858322E+01  9.6610825E+01
 4.5883442E+01  9.6670113E+01
 4.5908562E+01  9.6670624E+01
 4.5933681E+01  9.6703697E+01
 4.5958805E+01  9.6774261E+01
 4.5983925E+01  9.6839363E+01
 4.6009045E+01  9.6731285E+01
 4.6034168E+01  9.6685501E+01
 4.6059288E+01  9.6743820E+01
 4.6084408E+01  9.6635925E+01
 4.6109531E+01  9.6418282E+01
 4.6134651E+01  9.6424850E+01
 4.6159771E+01  9.6688530E+01
 4.6184895E+01  9.6715492E+01
 4.6210014E+01  9.6751335E+01
 4.6235134E+01  9.7000351E+01
 4.6260254E+01  9.7212463E+01
 4.6285378E+01  9.7396172E+01
 4.6310497E+01  9.7577774E+01
 4.6335617E+01  9.7747879E+01
 4.6360741E+01  9.8168289E+01
 4.6385860E+01  9.8193665E+01
 4.6410980E+01  9.8203308E+01
 4.6436104E+01  9.8174454E+01
 4.6461224E+01  9.8101021E+01
 4.6486343E+01  9.8046143E+01
 4.6511467E+01  9.8083282E+01
 4.6536587E+01  9.8153389E+01
 4.6561707E+01  9.8225204E+01
 4.6586830E+01  9.8434242E+01
 4.6611950E+01  9.8681358E+01
 4.6637070E+01  9.8899773E+01
 4.6662189E+01  9.9045013E+01
 4.6687313E+01  9.9309776E+01
 4.6712433E+01  9.9921753E+01
 4.6737553E+01  1.0086821E+02
 4.6762676E+01  1.0152382E+02
 4.6787796E+01  1.0236760E+02
 4.6812916E+01  1.0308123E+02
 4.6838039E+01  1.0363940E+02
 4.6863159E+01  1.0371516E+02
 4.6888279E+01  1.0335829E+02
 4.6913403E+01  1.0297845E+02
 4.6938522E+01  1.0216621E+02
 4.6963642E+01  1.0108118E+02
 4.6988762E+01  1.0039758E+02
 4.7013885E+01  9.9746170E+01
 4.7039005E+01  9.9338058E+01
 4.7064125E+01  9.8929413E+01
 4.7089249E+01  9.8912170E+01
 4.7114368E+01  9.8836960E+01
 4.7139488E+01  9.8541046E+01
 4.7164612E+01  9.8515549E+01
 4.7189732E+01  9.8685699E+01
 4.7214851E+01  9.8831909E+01
 4.7239975E+01  9.9162209E+01
 4.7265095E+01  9.9537071E+01
 4.7290215E+01  9.9468956E+01
 4.7315334E+01  9.9375389E+01
 4.7340458E+01  9.9169106E+01
 4.7365578E+01  9.9037437E+01
 4.7390697E+01  9.9187660E+01
 4.7415821E+01  9.8998329E+01
 4.7440941E+01  9.8651039E+01
 4.7466061E+01  9.8575783E+01
 4.7491184E+01  9.7892006E+01
 4.7516304E+01  9.7716194E+01
 4.7541424E+01  9.7719620E+01
 4.7566547E+01  9.7904991E+01
 4.7591667E+01  9.8209511E+01
 4.7616787E+01  9.8821808E+01
 4.7641911E+01  9.9460068E+01
 4.7667030E+01  9.9665100E+01
 4.7692150E+01  1.0074799E+02
 4.7717270E+01  1.0227043E+02
 4.7742393E+01  1.0399126E+02
 4.7767513E+01  1.0563898E+02
 4.7792633E+01  1.0756838E+02
 4.7817757E+01  1.0907996E+02
 4.7842876E+01  1.0960816E+02
 4.7867996E+01  1.0984424E+02
 4.7893120E+01  1.0972273E+02
 4.7918240E+01  1.0768920E+02
 4.7943359E+01  1.0492712E+02
 4.7968483E+01  1.0296985E+02
 4.7993603E+01  1.0119073E+02
 4.8018723E+01  9.9694595E+01
 4.8043842E+01  9.9344261E+01
 4.8068966E+01  9.9101448E+01
 4.8094086E+01  9.8711136E+01
 4.8119205E+01  9.8846893E+01
 4.8144329E+01  9.9424835E+01
 4.8169449E+01  1.0019263E+02
 4.8194569E+01  1.0166850E+02
 4.8219692E+01  1.0380814E+02
 4.8244812E+01  1.0647044E+02
 4.8269932E+01  1.0897599E+02
 4.8295055E+01  1.1127280E+02
 4.8320175E+01  1.1270019E+02
 4.8345295E+01  1.1338716E+02
 4.8370419E+01  1.1278701E+02
 4.8395538E+01  1.1095296E+02
 4.8420658E+01  1.0815594E+02
 4.8445778E+01  1.0551807E+02
 4.8470901E+01  1.0318867E+02
 4.8496021E+01  1.0142271E+02
 4.8521141E+01  1.0065288E+02
 4.8546265E+01  9.9731796E+01
 4.8571384E+01  9.9355026E+01
 4.8596504E+01  9.9290459E+01
 4.8621628E+01  9.9490585E+01
 4.8646748E+01  9.9886871E+01
 4.8671867E+01  1.0040420E+02
 4.8696991E+01  1.0088866E+02
 4.8722111E+01  1.0178882E+02
 4.8747231E+01  1.0244041E+02
 4.8772350E+01  1.0260660E+02
 4.8797474E+01  1.0270416E+02
 4.8822594E+01  1.0202020E+02
 4.8847713E+01  1.0182668E+02
 4.8872837E+01  1.0151254E+02
 4.8897957E+01  1.0123972E+02
 4.8923077E+01  1.0054833E+02
 4.8948200E+01  1.0035769E+02
 4.8973320E+01  1.0008546E+02
 4.8998440E+01  1.0009873E+02
 4.9023563E+01  1.0000696E+02
 4.9048683E+01  1.0022832E+02
 4.9073803E+01  1.0036604E+02
 4.9098927E+01  1.0022005E+02
 4.9124046E+01  9.9882294E+01
 4.9149166E+01  9.9637177E+01
 4.9174286E+01  9.9506966E+01
 4.9199409E+01  9.9250252E+01
 4.9224529E+01  9.9266640E+01
 4.9249649E+01  9.9165703E+01
 4.9274773E+01  9.9546165E+01
 4.9299892E+01  9.9495590E+01
 4.9325012E+01  1.0002665E+02
 4.9350136E+01  9.9723572E+01
 4.9375256E+01  9.9496841E+01
 4.9400375E+01  1.0001932E+02
 4.9425499E+01  9.9808273E+01
 4.9450619E+01  9.9684654E+01
 4.9475739E+01  1.0005674E+02
 4.9500858E+01  1.0024709E+02
 4.9525982E+01  1.0016588E+02
 4.9551102E+01  1.0021910E+02
 4.9576221E+01  9.9960503E+01
 4.9601345E+01  1.0001637E+02
 4.9626465E+01  1.0018846E+02
 4.9651585E+01  1.0019164E+02
 4.9676708E+01  1.0011724E+02
 4.9701828E+01  1.0010686E+02
 4.9726948E+01  1.0011639E+02
 4.9752071E+01  1.0010580E+02
 4.9777191E+01  1.0014129E+02
 4.9802311E+01  1.0030644E+02
 4.9827435E+01  1.0061413E+02
 4.9852554E+01  1.0071751E+02
 4.9877674E+01  1.0078683E+02
 4.9902794E+01  1.0074464E+02
 4.9927917E+01  1.0064698E+02
 4.9953037E+01  1.0085363E+02
 4.9978157E+01  1.0085914E+02
 5.0003281E+01  1.0121255E+02
 5.0028400E+01  1.0154705E+02
 5.0053520E+01  1.0146181E+02
 5.0078644E+01  1.0147853E+02
 5.0103764E+01  1.0196585E+02
 5.0128883E+01  1.0233281E+02
 5.0154007E+01  1.0242441E+02
 5.0179127E+01  1.0278336E+02
 5.0204247E+01  1.0354086E+02
 5.0229366E+01  1.0418446E+02
 5.0254490E+01  1.0494130E+02
 5.0279610E+01  1.0566729E+02
 5.0304729E+01  1.0725798E+02
 5.0329853E+01  1.0873837E+02
 5.0354973E+01  1.1085537E+02
 5.0380093E+01  1.1223835E+02
 5.0405216E+01  1.1317010E+02
 5.0430336E+01  1.1237728E+02
 5.0455456E+01  1.1133387E+02
 5.0480579E+01  1.1049616E+02
 5.0505699E+01  1.0966227E+02
 5.0530819E+01  1.0904765E+02
 5.0555939E+01  1.0818916E+02
 5.0581062E+01  1.0776447E+02
 5.0606182E+01  1.0764857E+02
 5.0631302E+01  1.0774696E+02
 5.0656425E+01  1.0710532E+02
 5.0681545E+01  1.0611428E+02
 5.0706665E+01  1.0608553E+02
 5.0731789E+01  1.0626643E+02
 5.0756908E+01  1.0626350E+02
 5.0782028E+01  1.0720947E+02
 5.0807152E+01  1.0738607E+02
 5.0832272E+01  1.0721808E+02
 5.0857391E+01  1.0710573E+02
 5.0882515E+01  1.0667219E+02
 5.0907635E+01  1.0590350E+02
 5.0932755E+01  1.0518140E+02
 5.0957874E+01  1.0443562E+02
 5.0982998E+01  1.0350066E+02
 5.1008118E+01  1.0304823E+02
 5.1033237E+01  1.0308912E+02
 5.1058361E+01  1.0297553E+02
 5.1083481E+01  1.0268513E+02
 5.1108601E+01  1.0276308E+02
 5.1133724E+01  1.0312239E+02
 5.1158844E+01  1.0296237E+02
 5.1183964E+01  1.0355605E+02
 5.1209087E+01  1.0441707E+02
 5.1234207E+01  1.0646711E+02
 5.1259327E+01  1.0449269E+02
 5.1284447E+01  1.0352324E+02
 5.1309570E+01  1.0312690E+02
 5.1334690E+01  1.0336946E+02
 5.1359810E+01  1.0318763E+02
 5.1384933E+01  1.0374767E+02
 5.1410053E+01  1.0408587E+02
 5.1435173E+01  1.0428194E+02
 5.1460297E+01  1.0379150E+02
 5.1485416E+01  1.0338996E+02
 5.1510536E+01  1.0308953E+02
 5.1535660E+01  1.0307793E+02
 5.1560780E+01  1.0304861E+02
 5.1585899E+01  1.0330946E+02
 5.1611023E+01  1.0337184E+02
 5.1636143E+01  1.0364513E+02
 5.1661263E+01  1.0365332E+02
 5.1686382E+01  1.0364712E+02
 5.1711506E+01  1.0477455E+02
 5.1736626E+01  1.0511916E+02
 5.1761745E+01  1.0575336E+02
 5.1786869E+01  1.0601369E+02
 5.1811989E+01  1.0643919E+02
 5.1837109E+01  1.0661967E+02
 5.1862232E+01  1.0660037E+02
 5.1887352E+01  1.0659462E+02
 5.1912472E+01  1.0652285E+02
 5.1937595E+01  1.0561453E+02
 5.1962715E+01  1.0516475E+02
 5.1987835E+01  1.0444135E+02
 5.2012955E+01  1.0410074E+02
 5.2038078E+01  1.0438327E+02
 5.2063198E+01  1.0459870E+02
 5.2088318E+01  1.0413120E+02
 5.2113441E+01  1.0395372E+02
 5.2138561E+01  1.0433971E+02
 5.2163681E+01  1.0460080E+02
 5.2188805E+01  1.0511116E+02
 5.2213924E+01  1.0511002E+02
 5.2239044E+01  1.0491812E+02
 5.2264168E+01  1.0465067E+02
 5.2289288E+01  1.0444054E+02
 5.2314407E+01  1.0498369E+02
 5.2339531E+01  1.0497889E+02
 5.2364651E+01  1.0486608E+02
 5.2389771E+01  1.0488360E+02
 5.2414890E+01  1.0529750E+02
 5.2440014E+01  1.0510111E+02
 5.2465134E+01  1.0456052E+02
 5.2490253E+01  1.0515733E+02
 5.2515377E+01  1.0503857E+02
 5.2540497E+01  1.0510425E+02
 5.2565617E+01  1.0582872E+02
 5.2590740E+01  1.0626016E+02
 5.2615860E+01  1.0709818E+02
 5.2640980E+01  1.0792404E+02
 5.2666103E+01  1.0992555E+02
 5.2691223E+01  1.1182378E+02
 5.2716343E+01  1.1370013E+02
 5.2741463E+01  1.1569366E+02
 5.2766586E+01  1.1635529E+02
 5.2791706E+01  1.1746073E+02
 5.2816826E+01  1.1762936E+02
 5.2841949E+01  1.1704877E+02
 5.2867069E+01  1.1601908E+02
 5.2892189E+01  1.1395812E+02
 5.2917313E+01  1.1199384E+02
 5.2942432E+01  1.0957336E+02
 5.2967552E+01  1.0914400E+02
 5.2992676E+01  1.0846497E+02
 5.3017796E+01  1.0879253E+02
 5.3042915E+01  1.0824435E+02
 5.3068035E+01  1.0809309E+02
 5.3093159E+01  1.0848827E+02
 5.3118279E+01  1.0871955E+02
 5.3143398E+01  1.0906039E+02
 5.3168522E+01  1.0860987E+02
 5.3193642E+01  1.0959460E+02
 5.3218761E+01  1.1131992E+02
 5.3243885E+01  1.1323805E+02
 5.3269005E+01  1.1430227E+02
 5.3294125E+01  1.1361983E+02
 5.3319248E+01  1.1379613E+02
 5.3344368E+01  1.1463584E+02
 5.3369488E+01  1.1452887E+02
 5.3394611E+01  1.1473598E+02
 5.3419731E+01  1.1350566E+02
 5.3444851E+01  1.1267906E+02
 5.3469971E+01  1.1179616E+02
 5.3495094E+01  1.1082526E+02
 5.3520214E+01  1.0952020E+02
 5.3545334E+01  1.0897914E+02
 5.3570457E+01  1.0980042E+02
 5.3595577E+01  1.0971070E+02
 5.3620697E+01  1.0976631E+02
 5.3645821E+01  1.0962914E+02
 5.3670940E+01  1.0948260E+02
 5.3696060E+01  1.0962598E+02
 5.3721184E+01  1.0903877E+02
 5.3746304E+01  1.0856630E+02
 5.3771423E+01  1.0899640E+02
 5.3796543E+01  1.0952485E+02
 5.3821667E+01  1.0982765E+02
 5.3846786E+01  1.1107741E+02
 5.3871906E+01  1.0977227E+02
 5.3897030E+01  1.1023569E+02
 5.3922150E+01  1.1055309E+02
 5.3947269E+01  1.1076633E+02
 5.3972393E+01  1.0942496E+02
 5.3997513E+01  1.0940708E+02
 5.4022633E+01  1.0959677E+02
 5.4047756E+01  1.1075711E+02
 5.4072876E+01  1.1010316E+02
 5.4097996E+01  1.0993346E+02
 5.4123119E+01  1.1099187E+02
 5.4148239E+01  1.1066775E+02
 5.4173359E+01  1.1064301E+02
 5.4198479E+01  1.1118840E+02
 5.4223602E+01  1.1098778E+02
 5.4248722E+01  1.1125570E+02
 5.4273842E+01  1.1100713E+02
 5.4298965E+01  1.1077079E+02
 5.4324085E+01  1.1074628E+02
 5.4349205E+01  1.0856197E+02
 5.4374329E+01  1.0959737E+02
 5.4399448E+01  1.1046100E+02
 5.4424568E+01  1.0951427E+02
 5.4449692E+01  1.0907502E+02
 5.4474812E+01  1.1066039E+02
 5.4499931E+01  1.1065504E+02
 5.4525051E+01  1.1132909E+02
 5.4550175E+01  1.1065091E+02
 5.4575294E+01  1.0987741E+02
 5.4600414E+01  1.0962706E+02
 5.4625538E+01  1.0835834E+02
 5.4650658E+01  1.1058632E+02
 5.4675777E+01  1.1007959E+02
 5.4700901E+01  1.1035834E+02
 5.4726021E+01  1.0672740E+02
 5.4751141E+01  1.0727602E+02
 5.4776264E+01  1.0693738E+02
 5.4801384E+01  1.0759775E+02
 5.4826504E+01  1.0364132E+02
 5.4851627E+01  1.0239612E+02
 5.4876747E+01  1.0081865E+02
 5.4901867E+01  1.0115276E+02
 5.4926987E+01  9.6197121E+01
 5.4952110E+01  8.8543266E+01
 5.4977230E+01  9.1423470E+01
 5.5002350E+01  8.6471664E+01
