P:\2013_07_08\Marccd\Jul13_05665.mccd: Q-Space Scan
Q (Inverse Nanometres)

       2230
 1.0768640E-02  0.0000000E+00
 3.2305919E-02  0.0000000E+00
 5.3843200E-02  0.0000000E+00
 7.5380482E-02  0.0000000E+00
 9.6917756E-02  0.0000000E+00
 1.1845504E-01  0.0000000E+00
 1.3999231E-01  0.0000000E+00
 1.6152960E-01  0.0000000E+00
 1.8306687E-01  0.0000000E+00
 2.0460416E-01  0.0000000E+00
 2.2614144E-01  0.0000000E+00
 2.4767871E-01  0.0000000E+00
 2.6921600E-01  0.0000000E+00
 2.9075328E-01  0.0000000E+00
 3.1229055E-01  0.0000000E+00
 3.3382782E-01  0.0000000E+00
 3.5536513E-01  0.0000000E+00
 3.7690240E-01  0.0000000E+00
 3.9843968E-01  0.0000000E+00
 4.1997695E-01  0.0000000E+00
 4.4151422E-01  0.0000000E+00
 4.6305153E-01  0.0000000E+00
 4.8458880E-01  0.0000000E+00
 5.0612605E-01  0.0000000E+00
 5.2766335E-01  0.0000000E+00
 5.4920065E-01  0.0000000E+00
 5.7073790E-01  0.0000000E+00
 5.9227520E-01  0.0000000E+00
 6.1381245E-01  0.0000000E+00
 6.3534975E-01  0.0000000E+00
 6.5688705E-01  0.0000000E+00
 6.7842430E-01  0.0000000E+00
 6.9996160E-01  0.0000000E+00
 7.2149885E-01  0.0000000E+00
 7.4303615E-01  0.0000000E+00
 7.6457345E-01  0.0000000E+00
 7.8611070E-01  0.0000000E+00
 8.0764800E-01  0.0000000E+00
 8.2918525E-01  0.0000000E+00
 8.5072255E-01  0.0000000E+00
 8.7225986E-01  0.0000000E+00
 8.9379710E-01  0.0000000E+00
 9.1533440E-01  0.0000000E+00
 9.3687165E-01  0.0000000E+00
 9.5840895E-01  0.0000000E+00
 9.7994626E-01  0.0000000E+00
 1.0014836E+00  0.0000000E+00
 1.0230207E+00  0.0000000E+00
 1.0445580E+00  0.0000000E+00
 1.0660954E+00  0.0000000E+00
 1.0876327E+00  0.0000000E+00
 1.1091700E+00  0.0000000E+00
 1.1307071E+00  0.0000000E+00
 1.1522444E+00  0.0000000E+00
 1.1737818E+00  0.0000000E+00
 1.1953191E+00  0.0000000E+00
 1.2168564E+00  0.0000000E+00
 1.2383935E+00  0.0000000E+00
 1.2599308E+00  0.0000000E+00
 1.2814682E+00  0.0000000E+00
 1.3030055E+00  0.0000000E+00
 1.3245428E+00  0.0000000E+00
 1.3460799E+00  0.0000000E+00
 1.3676172E+00  0.0000000E+00
 1.3891546E+00  0.0000000E+00
 1.4106919E+00  2.4566498E+01
 1.4322290E+00  2.0152334E+01
 1.4537663E+00  1.9285965E+01
 1.4753036E+00  1.8739214E+01
 1.4968410E+00  1.8696306E+01
 1.5183783E+00  1.8693720E+01
 1.5399154E+00  1.8536228E+01
 1.5614527E+00  1.8767572E+01
 1.5829901E+00  1.9241726E+01
 1.6045274E+00  2.0340195E+01
 1.6260647E+00  2.0732382E+01
 1.6476018E+00  2.0405449E+01
 1.6691391E+00  2.0244146E+01
 1.6906765E+00  2.0068272E+01
 1.7122138E+00  2.0414305E+01
 1.7337511E+00  2.0387371E+01
 1.7552882E+00  2.0060520E+01
 1.7768255E+00  1.9748867E+01
 1.7983629E+00  2.0408522E+01
 1.8199002E+00  2.1514919E+01
 1.8414375E+00  2.3444090E+01
 1.8629746E+00  2.6778610E+01
 1.8845119E+00  2.9903847E+01
 1.9060493E+00  3.2590122E+01
 1.9275866E+00  3.4229275E+01
 1.9491239E+00  3.5378342E+01
 1.9706610E+00  3.7173004E+01
 1.9921983E+00  3.8414711E+01
 2.0137358E+00  3.8814720E+01
 2.0352728E+00  3.8171413E+01
 2.0568101E+00  3.8359257E+01
 2.0783474E+00  3.9173122E+01
 2.0998847E+00  4.0463287E+01
 2.1214221E+00  4.2279388E+01
 2.1429594E+00  4.4592766E+01
 2.1644967E+00  4.7183739E+01
 2.1860340E+00  4.9435062E+01
 2.2075713E+00  5.1246700E+01
 2.2291083E+00  5.2237789E+01
 2.2506456E+00  5.2713127E+01
 2.2721829E+00  5.2646271E+01
 2.2937202E+00  5.2316990E+01
 2.3152575E+00  5.1879501E+01
 2.3367949E+00  5.1228333E+01
 2.3583322E+00  5.0338070E+01
 2.3798695E+00  4.9522602E+01
 2.4014068E+00  4.8830299E+01
 2.4229441E+00  4.8023129E+01
 2.4444811E+00  4.7415924E+01
 2.4660184E+00  4.6931499E+01
 2.4875557E+00  4.6355610E+01
 2.5090930E+00  4.5977631E+01
 2.5306304E+00  4.5827541E+01
 2.5521677E+00  4.5631123E+01
 2.5737050E+00  4.5159477E+01
 2.5952423E+00  4.4613697E+01
 2.6167796E+00  4.4191460E+01
 2.6383169E+00  4.3837444E+01
 2.6598539E+00  4.3505749E+01
 2.6813912E+00  4.3154213E+01
 2.7029285E+00  4.2756062E+01
 2.7244658E+00  4.2482071E+01
 2.7460032E+00  4.2227272E+01
 2.7675405E+00  4.1962048E+01
 2.7890778E+00  4.1841404E+01
 2.8106151E+00  4.1531040E+01
 2.8321524E+00  4.1253334E+01
 2.8536897E+00  4.1090824E+01
 2.8752267E+00  4.0817944E+01
 2.8967640E+00  4.0693409E+01
 2.9183013E+00  4.0478642E+01
 2.9398386E+00  4.0022381E+01
 2.9613760E+00  3.9695164E+01
 2.9829133E+00  3.9679123E+01
 3.0044506E+00  3.9667404E+01
 3.0259879E+00  3.9433479E+01
 3.0475252E+00  3.9258808E+01
 3.0690625E+00  3.8994400E+01
 3.0905995E+00  3.8698784E+01
 3.1121368E+00  3.8592827E+01
 3.1336741E+00  3.8483891E+01
 3.1552114E+00  3.8439873E+01
 3.1767488E+00  3.8380543E+01
 3.1982861E+00  3.8280720E+01
 3.2198234E+00  3.8248436E+01
 3.2413607E+00  3.8140785E+01
 3.2628980E+00  3.7967682E+01
 3.2844353E+00  3.7885773E+01
 3.3059723E+00  3.8001671E+01
 3.3275096E+00  3.7926384E+01
 3.3490469E+00  3.7565651E+01
 3.3705842E+00  3.7339577E+01
 3.3921216E+00  3.7273609E+01
 3.4136589E+00  3.7270748E+01
 3.4351962E+00  3.7238018E+01
 3.4567335E+00  3.7093983E+01
 3.4782708E+00  3.6929550E+01
 3.4998078E+00  3.6879967E+01
 3.5213451E+00  3.6782814E+01
 3.5428824E+00  3.6790329E+01
 3.5644197E+00  3.6674381E+01
 3.5859571E+00  3.6455147E+01
 3.6074944E+00  3.6410767E+01
 3.6290317E+00  3.6467468E+01
 3.6505690E+00  3.6511940E+01
 3.6721063E+00  3.6458851E+01
 3.6936436E+00  3.6401772E+01
 3.7151806E+00  3.6433575E+01
 3.7367179E+00  3.6561832E+01
 3.7582552E+00  3.6528683E+01
 3.7797925E+00  3.6353668E+01
 3.8013299E+00  3.6178867E+01
 3.8228672E+00  3.6175804E+01
 3.8444045E+00  3.6248066E+01
 3.8659418E+00  3.6165314E+01
 3.8874791E+00  3.6078987E+01
 3.9090164E+00  3.5957310E+01
 3.9305534E+00  3.5921452E+01
 3.9520907E+00  3.5848789E+01
 3.9736280E+00  3.5792160E+01
 3.9951653E+00  3.6078442E+01
 4.0167027E+00  3.6174835E+01
 4.0382400E+00  3.6102177E+01
 4.0597773E+00  3.5995632E+01
 4.0813146E+00  3.5915226E+01
 4.1028519E+00  3.6025585E+01
 4.1243892E+00  3.6073872E+01
 4.1459265E+00  3.6124001E+01
 4.1674638E+00  3.6186993E+01
 4.1890011E+00  3.6203968E+01
 4.2105384E+00  3.6122475E+01
 4.2320757E+00  3.6107864E+01
 4.2536125E+00  3.6176643E+01
 4.2751498E+00  3.6332439E+01
 4.2966871E+00  3.6399021E+01
 4.3182244E+00  3.6284954E+01
 4.3397617E+00  3.6276825E+01
 4.3612990E+00  3.6298962E+01
 4.3828363E+00  3.6319149E+01
 4.4043736E+00  3.6472786E+01
 4.4259109E+00  3.6519550E+01
 4.4474483E+00  3.6345982E+01
 4.4689856E+00  3.6361893E+01
 4.4905229E+00  3.6510483E+01
 4.5120602E+00  3.6667244E+01
 4.5335975E+00  3.6800812E+01
 4.5551348E+00  3.6834736E+01
 4.5766721E+00  3.6831066E+01
 4.5982094E+00  3.6937840E+01
 4.6197467E+00  3.6946945E+01
 4.6412840E+00  3.6954338E+01
 4.6628213E+00  3.6939514E+01
 4.6843581E+00  3.7003586E+01
 4.7058954E+00  3.7119099E+01
 4.7274327E+00  3.7275490E+01
 4.7489700E+00  3.7265537E+01
 4.7705073E+00  3.7255535E+01
 4.7920446E+00  3.7319656E+01
 4.8135819E+00  3.7342785E+01
 4.8351192E+00  3.7431953E+01
 4.8566566E+00  3.7642403E+01
 4.8781939E+00  3.7852345E+01
 4.8997312E+00  3.7948780E+01
 4.9212685E+00  3.8009960E+01
 4.9428058E+00  3.8031315E+01
 4.9643431E+00  3.7946686E+01
 4.9858804E+00  3.8010075E+01
 5.0074177E+00  3.8201550E+01
 5.0289550E+00  3.8263897E+01
 5.0504923E+00  3.8423466E+01
 5.0720296E+00  3.8523865E+01
 5.0935664E+00  3.8547623E+01
 5.1151037E+00  3.8604931E+01
 5.1366410E+00  3.8813622E+01
 5.1581783E+00  3.8943752E+01
 5.1797156E+00  3.9040276E+01
 5.2012529E+00  3.9181118E+01
 5.2227902E+00  3.9235405E+01
 5.2443275E+00  3.9419022E+01
 5.2658648E+00  3.9614731E+01
 5.2874022E+00  3.9678703E+01
 5.3089395E+00  3.9628014E+01
 5.3304768E+00  3.9732063E+01
 5.3520141E+00  4.0050812E+01
 5.3735514E+00  4.0145306E+01
 5.3950887E+00  4.0136265E+01
 5.4166260E+00  4.0388939E+01
 5.4381633E+00  4.0550915E+01
 5.4597006E+00  4.0602627E+01
 5.4812379E+00  4.0670925E+01
 5.5027752E+00  4.0941090E+01
 5.5243120E+00  4.1179905E+01
 5.5458493E+00  4.1231915E+01
 5.5673866E+00  4.1242184E+01
 5.5889239E+00  4.1492062E+01
 5.6104612E+00  4.1632915E+01
 5.6319985E+00  4.1737614E+01
 5.6535358E+00  4.1763680E+01
 5.6750731E+00  4.1747169E+01
 5.6966105E+00  4.1790333E+01
 5.7181478E+00  4.1944324E+01
 5.7396851E+00  4.2109085E+01
 5.7612224E+00  4.2269150E+01
 5.7827597E+00  4.2407494E+01
 5.8042970E+00  4.2656975E+01
 5.8258343E+00  4.2890556E+01
 5.8473716E+00  4.3119034E+01
 5.8689089E+00  4.3319710E+01
 5.8904462E+00  4.3451935E+01
 5.9119835E+00  4.3545097E+01
 5.9335208E+00  4.3639812E+01
 5.9550576E+00  4.3590408E+01
 5.9765949E+00  4.3723732E+01
 5.9981322E+00  4.3998207E+01
 6.0196695E+00  4.4154259E+01
 6.0412068E+00  4.4317505E+01
 6.0627441E+00  4.4612850E+01
 6.0842814E+00  4.4847935E+01
 6.1058187E+00  4.4897934E+01
 6.1273561E+00  4.5042374E+01
 6.1488934E+00  4.5296349E+01
 6.1704307E+00  4.5502380E+01
 6.1919680E+00  4.5782547E+01
 6.2135053E+00  4.6026466E+01
 6.2350426E+00  4.6227715E+01
 6.2565799E+00  4.6567051E+01
 6.2781172E+00  4.6895699E+01
 6.2996545E+00  4.7297737E+01
 6.3211918E+00  4.8093353E+01
 6.3427291E+00  4.9272812E+01
 6.3642659E+00  5.0379459E+01
 6.3858032E+00  5.1211208E+01
 6.4073405E+00  5.1679306E+01
 6.4288778E+00  5.1921329E+01
 6.4504151E+00  5.1886547E+01
 6.4719524E+00  5.1820465E+01
 6.4934897E+00  5.1893093E+01
 6.5150270E+00  5.2218937E+01
 6.5365644E+00  5.2763538E+01
 6.5581017E+00  5.3156670E+01
 6.5796390E+00  5.3170815E+01
 6.6011763E+00  5.2606838E+01
 6.6227136E+00  5.1851078E+01
 6.6442509E+00  5.1149616E+01
 6.6657882E+00  5.0598824E+01
 6.6873255E+00  5.0297642E+01
 6.7088628E+00  5.0330471E+01
 6.7304001E+00  5.0462624E+01
 6.7519374E+00  5.0539268E+01
 6.7734747E+00  5.0724415E+01
 6.7950115E+00  5.1034908E+01
 6.8165488E+00  5.1159401E+01
 6.8380861E+00  5.1266376E+01
 6.8596234E+00  5.1457481E+01
 6.8811607E+00  5.1742855E+01
 6.9026980E+00  5.1952789E+01
 6.9242353E+00  5.2190006E+01
 6.9457726E+00  5.2447865E+01
 6.9673100E+00  5.2740044E+01
 6.9888473E+00  5.3224026E+01
 7.0103846E+00  5.3678818E+01
 7.0319219E+00  5.3858944E+01
 7.0534592E+00  5.4048500E+01
 7.0749965E+00  5.4310452E+01
 7.0965338E+00  5.4566845E+01
 7.1180711E+00  5.4762451E+01
 7.1396084E+00  5.4863903E+01
 7.1611457E+00  5.5042088E+01
 7.1826830E+00  5.5170494E+01
 7.2042203E+00  5.5347416E+01
 7.2257571E+00  5.5805367E+01
 7.2472944E+00  5.6274956E+01
 7.2688317E+00  5.6612915E+01
 7.2903690E+00  5.6938232E+01
 7.3119063E+00  5.7166458E+01
 7.3334436E+00  5.7388569E+01
 7.3549809E+00  5.7650768E+01
 7.3765182E+00  5.8084145E+01
 7.3980556E+00  5.8465450E+01
 7.4195929E+00  5.8725956E+01
 7.4411302E+00  5.9052902E+01
 7.4626675E+00  5.9462246E+01
 7.4842048E+00  5.9745182E+01
 7.5057421E+00  6.0068913E+01
 7.5272794E+00  6.0459415E+01
 7.5488167E+00  6.0884998E+01
 7.5703540E+00  6.1297630E+01
 7.5918913E+00  6.1744213E+01
 7.6134286E+00  6.2066898E+01
 7.6349654E+00  6.2434807E+01
 7.6565027E+00  6.2831150E+01
 7.6780400E+00  6.3162495E+01
 7.6995773E+00  6.3514423E+01
 7.7211146E+00  6.3988888E+01
 7.7426519E+00  6.4476364E+01
 7.7641892E+00  6.4922928E+01
 7.7857265E+00  6.5284531E+01
 7.8072639E+00  6.5753517E+01
 7.8288012E+00  6.6373604E+01
 7.8503385E+00  6.6873848E+01
 7.8718758E+00  6.7233452E+01
 7.8934131E+00  6.7611153E+01
 7.9149504E+00  6.7943047E+01
 7.9364877E+00  6.8362747E+01
 7.9580250E+00  6.8962914E+01
 7.9795623E+00  6.9622765E+01
 8.0010996E+00  7.0211823E+01
 8.0226364E+00  7.0710472E+01
 8.0441742E+00  7.1185783E+01
 8.0657110E+00  7.1619354E+01
 8.0872488E+00  7.2077087E+01
 8.1087856E+00  7.2519455E+01
 8.1303234E+00  7.2976044E+01
 8.1518602E+00  7.3566841E+01
 8.1733980E+00  7.4109108E+01
 8.1949348E+00  7.4624619E+01
 8.2164726E+00  7.5093437E+01
 8.2380095E+00  7.5359589E+01
 8.2595472E+00  7.5734581E+01
 8.2810841E+00  7.6205299E+01
 8.3026209E+00  7.6623169E+01
 8.3241587E+00  7.7094231E+01
 8.3456955E+00  7.7487206E+01
 8.3672333E+00  7.8010689E+01
 8.3887701E+00  7.8406181E+01
 8.4103079E+00  7.8568810E+01
 8.4318447E+00  7.8985550E+01
 8.4533825E+00  7.9562668E+01
 8.4749193E+00  7.9982582E+01
 8.4964571E+00  8.0269730E+01
 8.5179939E+00  8.0757080E+01
 8.5395317E+00  8.1264412E+01
 8.5610685E+00  8.1832436E+01
 8.5826063E+00  8.2218590E+01
 8.6041431E+00  8.2599159E+01
 8.6256809E+00  8.3045486E+01
 8.6472178E+00  8.3522049E+01
 8.6687555E+00  8.3916443E+01
 8.6902924E+00  8.4338509E+01
 8.7118292E+00  8.4894936E+01
 8.7333670E+00  8.5333160E+01
 8.7549038E+00  8.5634048E+01
 8.7764416E+00  8.5877243E+01
 8.7979784E+00  8.6138977E+01
 8.8195162E+00  8.6311279E+01
 8.8410530E+00  8.6694916E+01
 8.8625908E+00  8.7007141E+01
 8.8841276E+00  8.7338593E+01
 8.9056654E+00  8.7667366E+01
 8.9272022E+00  8.8028244E+01
 8.9487400E+00  8.8352371E+01
 8.9702768E+00  8.8631226E+01
 8.9918146E+00  8.8902008E+01
 9.0133514E+00  8.9235710E+01
 9.0348892E+00  8.9664856E+01
 9.0564260E+00  8.9804581E+01
 9.0779638E+00  8.9862511E+01
 9.0995007E+00  9.0129051E+01
 9.1210375E+00  9.0551758E+01
 9.1425753E+00  9.0682503E+01
 9.1641121E+00  9.0762970E+01
 9.1856499E+00  9.1262161E+01
 9.2071867E+00  9.1561058E+01
 9.2287245E+00  9.1736404E+01
 9.2502613E+00  9.1948166E+01
 9.2717991E+00  9.1934433E+01
 9.2933359E+00  9.1988945E+01
 9.3148737E+00  9.2060898E+01
 9.3364105E+00  9.2157852E+01
 9.3579483E+00  9.2233276E+01
 9.3794851E+00  9.2456390E+01
 9.4010229E+00  9.2551804E+01
 9.4225597E+00  9.2453545E+01
 9.4440975E+00  9.2523201E+01
 9.4656343E+00  9.2720978E+01
 9.4871721E+00  9.2878052E+01
 9.5087090E+00  9.2997360E+01
 9.5302467E+00  9.2947693E+01
 9.5517836E+00  9.2926575E+01
 9.5733204E+00  9.2883812E+01
 9.5948582E+00  9.2952797E+01
 9.6163950E+00  9.2903694E+01
 9.6379328E+00  9.2936836E+01
 9.6594696E+00  9.2902290E+01
 9.6810074E+00  9.2794838E+01
 9.7025442E+00  9.2767044E+01
 9.7240820E+00  9.2786598E+01
 9.7456188E+00  9.2725937E+01
 9.7671566E+00  9.2547005E+01
 9.7886934E+00  9.2412544E+01
 9.8102312E+00  9.2258804E+01
 9.8317680E+00  9.2015221E+01
 9.8533058E+00  9.1914261E+01
 9.8748426E+00  9.1844994E+01
 9.8963804E+00  9.1826912E+01
 9.9179173E+00  9.1799683E+01
 9.9394550E+00  9.1859337E+01
 9.9609919E+00  9.1759972E+01
 9.9825287E+00  9.1534515E+01
 1.0004066E+01  9.1361008E+01
 1.0025603E+01  9.1207390E+01
 1.0047141E+01  9.1064331E+01
 1.0068678E+01  9.0832741E+01
 1.0090216E+01  9.0806458E+01
 1.0111753E+01  9.0614059E+01
 1.0133290E+01  9.0376472E+01
 1.0154827E+01  9.0095268E+01
 1.0176365E+01  8.9876625E+01
 1.0197902E+01  8.9802727E+01
 1.0219440E+01  8.9729065E+01
 1.0240976E+01  8.9421150E+01
 1.0262514E+01  8.9088226E+01
 1.0284051E+01  8.8862358E+01
 1.0305589E+01  8.8702255E+01
 1.0327126E+01  8.8548378E+01
 1.0348663E+01  8.8410454E+01
 1.0370200E+01  8.8268631E+01
 1.0391737E+01  8.8041107E+01
 1.0413275E+01  8.7903404E+01
 1.0434812E+01  8.7824356E+01
 1.0456349E+01  8.7458672E+01
 1.0477886E+01  8.7137833E+01
 1.0499424E+01  8.6993912E+01
 1.0520961E+01  8.6910439E+01
 1.0542499E+01  8.6691650E+01
 1.0564035E+01  8.6492126E+01
 1.0585573E+01  8.6315208E+01
 1.0607110E+01  8.6143478E+01
 1.0628648E+01  8.5974022E+01
 1.0650185E+01  8.5748337E+01
 1.0671722E+01  8.5502991E+01
 1.0693259E+01  8.5192467E+01
 1.0714797E+01  8.4978607E+01
 1.0736334E+01  8.4680351E+01
 1.0757872E+01  8.4333496E+01
 1.0779408E+01  8.4094772E+01
 1.0800946E+01  8.4050934E+01
 1.0822483E+01  8.4032768E+01
 1.0844020E+01  8.3856819E+01
 1.0865558E+01  8.3559425E+01
 1.0887094E+01  8.3190491E+01
 1.0908632E+01  8.2934013E+01
 1.0930169E+01  8.2725365E+01
 1.0951707E+01  8.2540314E+01
 1.0973244E+01  8.2416122E+01
 1.0994781E+01  8.2219528E+01
 1.1016318E+01  8.2189499E+01
 1.1037856E+01  8.2104332E+01
 1.1059393E+01  8.1863625E+01
 1.1080931E+01  8.1855278E+01
 1.1102468E+01  8.1992691E+01
 1.1124005E+01  8.2175537E+01
 1.1145542E+01  8.2355377E+01
 1.1167080E+01  8.2326118E+01
 1.1188617E+01  8.2151787E+01
 1.1210155E+01  8.1934563E+01
 1.1231691E+01  8.1857697E+01
 1.1253228E+01  8.1807259E+01
 1.1274766E+01  8.1570335E+01
 1.1296303E+01  8.1101982E+01
 1.1317841E+01  8.0541626E+01
 1.1339377E+01  7.9935394E+01
 1.1360915E+01  7.9309509E+01
 1.1382452E+01  7.8743301E+01
 1.1403990E+01  7.8418579E+01
 1.1425527E+01  7.8173630E+01
 1.1447064E+01  7.7822548E+01
 1.1468601E+01  7.7439583E+01
 1.1490139E+01  7.7210579E+01
 1.1511676E+01  7.7020172E+01
 1.1533214E+01  7.6752754E+01
 1.1554750E+01  7.6445946E+01
 1.1576288E+01  7.6225174E+01
 1.1597825E+01  7.6076599E+01
 1.1619363E+01  7.5811821E+01
 1.1640900E+01  7.5644600E+01
 1.1662437E+01  7.5293793E+01
 1.1683974E+01  7.4997032E+01
 1.1705511E+01  7.4767517E+01
 1.1727049E+01  7.4638573E+01
 1.1748586E+01  7.4399361E+01
 1.1770123E+01  7.4123001E+01
 1.1791660E+01  7.3742981E+01
 1.1813198E+01  7.3453445E+01
 1.1834735E+01  7.3271111E+01
 1.1856273E+01  7.3085403E+01
 1.1877810E+01  7.2807877E+01
 1.1899347E+01  7.2602814E+01
 1.1920884E+01  7.2409775E+01
 1.1942422E+01  7.2202805E+01
 1.1963959E+01  7.2012955E+01
 1.1985497E+01  7.1886147E+01
 1.2007033E+01  7.1755310E+01
 1.2028571E+01  7.1472099E+01
 1.2050108E+01  7.1298691E+01
 1.2071646E+01  7.1129089E+01
 1.2093183E+01  7.0936401E+01
 1.2114719E+01  7.0668510E+01
 1.2136257E+01  7.0387695E+01
 1.2157794E+01  7.0235107E+01
 1.2179332E+01  7.0116806E+01
 1.2200869E+01  6.9933342E+01
 1.2222406E+01  6.9768822E+01
 1.2243943E+01  6.9628914E+01
 1.2265481E+01  6.9476814E+01
 1.2287018E+01  6.9293144E+01
 1.2308556E+01  6.9149086E+01
 1.2330092E+01  6.8933891E+01
 1.2351630E+01  6.8601318E+01
 1.2373167E+01  6.8428055E+01
 1.2394705E+01  6.8359848E+01
 1.2416242E+01  6.8146515E+01
 1.2437779E+01  6.7856224E+01
 1.2459316E+01  6.7513229E+01
 1.2480854E+01  6.7235397E+01
 1.2502391E+01  6.7039299E+01
 1.2523928E+01  6.6902534E+01
 1.2545465E+01  6.6740898E+01
 1.2567002E+01  6.6511330E+01
 1.2588540E+01  6.6286697E+01
 1.2610077E+01  6.6200172E+01
 1.2631615E+01  6.6060814E+01
 1.2653152E+01  6.5785400E+01
 1.2674689E+01  6.5553162E+01
 1.2696226E+01  6.5441734E+01
 1.2717764E+01  6.5256424E+01
 1.2739301E+01  6.5030891E+01
 1.2760839E+01  6.4788795E+01
 1.2782375E+01  6.4435272E+01
 1.2803913E+01  6.4192612E+01
 1.2825450E+01  6.3955330E+01
 1.2846988E+01  6.3798851E+01
 1.2868525E+01  6.3558361E+01
 1.2890062E+01  6.3254974E+01
 1.2911599E+01  6.3057858E+01
 1.2933137E+01  6.2834202E+01
 1.2954674E+01  6.2474850E+01
 1.2976211E+01  6.2197464E+01
 1.2997748E+01  6.1992622E+01
 1.3019285E+01  6.1794865E+01
 1.3040823E+01  6.1463917E+01
 1.3062360E+01  6.1186604E+01
 1.3083898E+01  6.0945526E+01
 1.3105434E+01  6.0807270E+01
 1.3126972E+01  6.0649181E+01
 1.3148509E+01  6.0452148E+01
 1.3170047E+01  6.0297836E+01
 1.3191584E+01  6.0185265E+01
 1.3213121E+01  6.0021393E+01
 1.3234658E+01  5.9849327E+01
 1.3256196E+01  5.9716198E+01
 1.3277733E+01  5.9663048E+01
 1.3299271E+01  5.9635300E+01
 1.3320807E+01  5.9632107E+01
 1.3342345E+01  5.9554874E+01
 1.3363882E+01  5.9449074E+01
 1.3385419E+01  5.9331654E+01
 1.3406957E+01  5.9177105E+01
 1.3428493E+01  5.9052990E+01
 1.3450031E+01  5.8915024E+01
 1.3471568E+01  5.8646679E+01
 1.3493106E+01  5.8322739E+01
 1.3514643E+01  5.7903267E+01
 1.3536180E+01  5.7423885E+01
 1.3557717E+01  5.7060841E+01
 1.3579255E+01  5.6787609E+01
 1.3600792E+01  5.6452316E+01
 1.3622330E+01  5.6110966E+01
 1.3643867E+01  5.5936718E+01
 1.3665404E+01  5.5647320E+01
 1.3686941E+01  5.5352226E+01
 1.3708479E+01  5.5122322E+01
 1.3730016E+01  5.4918571E+01
 1.3751554E+01  5.4793243E+01
 1.3773090E+01  5.4566425E+01
 1.3794627E+01  5.4232670E+01
 1.3816165E+01  5.4075691E+01
 1.3837702E+01  5.3963947E+01
 1.3859240E+01  5.3695099E+01
 1.3880776E+01  5.3529385E+01
 1.3902314E+01  5.3407001E+01
 1.3923851E+01  5.3255013E+01
 1.3945389E+01  5.3184528E+01
 1.3966926E+01  5.3079102E+01
 1.3988463E+01  5.2859955E+01
 1.4010000E+01  5.2669407E+01
 1.4031538E+01  5.2474998E+01
 1.4053075E+01  5.2300030E+01
 1.4074613E+01  5.2113056E+01
 1.4096149E+01  5.1982681E+01
 1.4117687E+01  5.1885662E+01
 1.4139224E+01  5.1730797E+01
 1.4160762E+01  5.1647057E+01
 1.4182299E+01  5.1538578E+01
 1.4203836E+01  5.1342644E+01
 1.4225373E+01  5.1255070E+01
 1.4246910E+01  5.1220814E+01
 1.4268448E+01  5.1125854E+01
 1.4289985E+01  5.0850224E+01
 1.4311522E+01  5.0579533E+01
 1.4333059E+01  5.0340244E+01
 1.4354597E+01  5.0218430E+01
 1.4376134E+01  5.0105606E+01
 1.4397672E+01  4.9852673E+01
 1.4419209E+01  4.9563446E+01
 1.4440746E+01  4.9361767E+01
 1.4462283E+01  4.9172523E+01
 1.4483821E+01  4.8932842E+01
 1.4505358E+01  4.8795456E+01
 1.4526896E+01  4.8515011E+01
 1.4548432E+01  4.8381557E+01
 1.4569970E+01  4.8260635E+01
 1.4591507E+01  4.8140518E+01
 1.4613045E+01  4.7951103E+01
 1.4634582E+01  4.7775364E+01
 1.4656118E+01  4.7627846E+01
 1.4677656E+01  4.7559425E+01
 1.4699193E+01  4.7437912E+01
 1.4720731E+01  4.7282829E+01
 1.4742268E+01  4.7004101E+01
 1.4763805E+01  4.6830029E+01
 1.4785342E+01  4.6786987E+01
 1.4806880E+01  4.6673000E+01
 1.4828417E+01  4.6451904E+01
 1.4849955E+01  4.6286572E+01
 1.4871491E+01  4.6192326E+01
 1.4893029E+01  4.6055382E+01
 1.4914566E+01  4.5880772E+01
 1.4936104E+01  4.5675514E+01
 1.4957641E+01  4.5521084E+01
 1.4979178E+01  4.5319481E+01
 1.5000715E+01  4.5210766E+01
 1.5022253E+01  4.5117443E+01
 1.5043790E+01  4.4986393E+01
 1.5065327E+01  4.4824146E+01
 1.5086864E+01  4.4678524E+01
 1.5108401E+01  4.4572155E+01
 1.5129939E+01  4.4429550E+01
 1.5151476E+01  4.4330074E+01
 1.5173014E+01  4.4255623E+01
 1.5194551E+01  4.4169060E+01
 1.5216088E+01  4.4063179E+01
 1.5237625E+01  4.3880859E+01
 1.5259163E+01  4.3743607E+01
 1.5280700E+01  4.3602757E+01
 1.5302238E+01  4.3496990E+01
 1.5323774E+01  4.3414112E+01
 1.5345312E+01  4.3300053E+01
 1.5366849E+01  4.3252033E+01
 1.5388387E+01  4.3183056E+01
 1.5409924E+01  4.3111355E+01
 1.5431461E+01  4.3053600E+01
 1.5452998E+01  4.2951012E+01
 1.5474536E+01  4.2844433E+01
 1.5496073E+01  4.2791782E+01
 1.5517610E+01  4.2695766E+01
 1.5539147E+01  4.2485245E+01
 1.5560684E+01  4.2413303E+01
 1.5582222E+01  4.2358612E+01
 1.5603759E+01  4.2205601E+01
 1.5625297E+01  4.2151104E+01
 1.5646833E+01  4.2071548E+01
 1.5668371E+01  4.1944614E+01
 1.5689908E+01  4.1890980E+01
 1.5711446E+01  4.1788723E+01
 1.5732983E+01  4.1629452E+01
 1.5754520E+01  4.1504444E+01
 1.5776057E+01  4.1344215E+01
 1.5797595E+01  4.1256535E+01
 1.5819132E+01  4.1230621E+01
 1.5840670E+01  4.1223373E+01
 1.5862206E+01  4.1166897E+01
 1.5883744E+01  4.1006470E+01
 1.5905281E+01  4.1016899E+01
 1.5926818E+01  4.1060940E+01
 1.5948356E+01  4.0981293E+01
 1.5969893E+01  4.0844341E+01
 1.5991430E+01  4.0826015E+01
 1.6012968E+01  4.0837681E+01
 1.6034504E+01  4.0860466E+01
 1.6056042E+01  4.0856174E+01
 1.6077579E+01  4.0935097E+01
 1.6099117E+01  4.0998997E+01
 1.6120653E+01  4.1211399E+01
 1.6142191E+01  4.1502033E+01
 1.6163729E+01  4.1888748E+01
 1.6185266E+01  4.2300915E+01
 1.6206802E+01  4.2597382E+01
 1.6228340E+01  4.2860531E+01
 1.6249878E+01  4.2899570E+01
 1.6271416E+01  4.2781731E+01
 1.6292952E+01  4.2407124E+01
 1.6314489E+01  4.2025745E+01
 1.6336027E+01  4.1732914E+01
 1.6357563E+01  4.1464760E+01
 1.6379101E+01  4.1202858E+01
 1.6400639E+01  4.0942867E+01
 1.6422176E+01  4.0759621E+01
 1.6443712E+01  4.0563644E+01
 1.6465250E+01  4.0366150E+01
 1.6486788E+01  4.0223270E+01
 1.6508326E+01  4.0029289E+01
 1.6529861E+01  3.9880516E+01
 1.6551399E+01  3.9921635E+01
 1.6572937E+01  4.0020340E+01
 1.6594475E+01  3.9912685E+01
 1.6616011E+01  3.9711178E+01
 1.6637548E+01  3.9513813E+01
 1.6659086E+01  3.9423824E+01
 1.6680624E+01  3.9299046E+01
 1.6702160E+01  3.9208115E+01
 1.6723698E+01  3.9156910E+01
 1.6745235E+01  3.9090244E+01
 1.6766771E+01  3.8999298E+01
 1.6788309E+01  3.8917385E+01
 1.6809847E+01  3.8888680E+01
 1.6831385E+01  3.8862305E+01
 1.6852921E+01  3.8815689E+01
 1.6874458E+01  3.8738667E+01
 1.6895996E+01  3.8686390E+01
 1.6917534E+01  3.8693569E+01
 1.6939070E+01  3.8749363E+01
 1.6960608E+01  3.8802837E+01
 1.6982145E+01  3.8767834E+01
 1.7003683E+01  3.8744125E+01
 1.7025219E+01  3.8717377E+01
 1.7046757E+01  3.8785290E+01
 1.7068295E+01  3.8825863E+01
 1.7089832E+01  3.8819500E+01
 1.7111368E+01  3.8834816E+01
 1.7132906E+01  3.8809795E+01
 1.7154444E+01  3.8842178E+01
 1.7175982E+01  3.8931530E+01
 1.7197517E+01  3.9018032E+01
 1.7219055E+01  3.9111469E+01
 1.7240593E+01  3.9123817E+01
 1.7262129E+01  3.9102139E+01
 1.7283667E+01  3.9067890E+01
 1.7305204E+01  3.9011963E+01
 1.7326742E+01  3.8940922E+01
 1.7348278E+01  3.8966106E+01
 1.7369816E+01  3.8955257E+01
 1.7391354E+01  3.9043152E+01
 1.7412891E+01  3.9205345E+01
 1.7434427E+01  3.9327660E+01
 1.7455965E+01  3.9432903E+01
 1.7477503E+01  3.9436283E+01
 1.7499041E+01  3.9361366E+01
 1.7520576E+01  3.9290661E+01
 1.7542114E+01  3.9253555E+01
 1.7563652E+01  3.9219845E+01
 1.7585190E+01  3.9241478E+01
 1.7606726E+01  3.9223438E+01
 1.7628263E+01  3.9167145E+01
 1.7649801E+01  3.9197708E+01
 1.7671337E+01  3.9237602E+01
 1.7692875E+01  3.9256023E+01
 1.7714413E+01  3.9258678E+01
 1.7735950E+01  3.9319798E+01
 1.7757486E+01  3.9396336E+01
 1.7779024E+01  3.9471756E+01
 1.7800562E+01  3.9628895E+01
 1.7822100E+01  3.9699104E+01
 1.7843636E+01  3.9739838E+01
 1.7865173E+01  3.9746700E+01
 1.7886711E+01  3.9744411E+01
 1.7908249E+01  3.9752296E+01
 1.7929785E+01  3.9747097E+01
 1.7951323E+01  3.9798672E+01
 1.7972860E+01  3.9932079E+01
 1.7994398E+01  4.0073521E+01
 1.8015934E+01  4.0314491E+01
 1.8037472E+01  4.0497124E+01
 1.8059010E+01  4.0687370E+01
 1.8080545E+01  4.0936836E+01
 1.8102083E+01  4.1187923E+01
 1.8123621E+01  4.1255852E+01
 1.8145159E+01  4.1102554E+01
 1.8166695E+01  4.0957684E+01
 1.8188232E+01  4.0815212E+01
 1.8209770E+01  4.0750710E+01
 1.8231308E+01  4.0692326E+01
 1.8252844E+01  4.0645092E+01
 1.8274382E+01  4.0746613E+01
 1.8295919E+01  4.0799652E+01
 1.8317457E+01  4.0735348E+01
 1.8338993E+01  4.0794022E+01
 1.8360531E+01  4.0868015E+01
 1.8382069E+01  4.0936516E+01
 1.8403606E+01  4.1035740E+01
 1.8425142E+01  4.1070980E+01
 1.8446680E+01  4.1074631E+01
 1.8468218E+01  4.1092369E+01
 1.8489754E+01  4.1150703E+01
 1.8511292E+01  4.1259754E+01
 1.8532829E+01  4.1381443E+01
 1.8554367E+01  4.1641144E+01
 1.8575903E+01  4.1955612E+01
 1.8597441E+01  4.2141254E+01
 1.8618979E+01  4.2078972E+01
 1.8640516E+01  4.1938126E+01
 1.8662052E+01  4.1916901E+01
 1.8683590E+01  4.2009232E+01
 1.8705128E+01  4.2038250E+01
 1.8726665E+01  4.2086231E+01
 1.8748201E+01  4.2220211E+01
 1.8769739E+01  4.2542633E+01
 1.8791277E+01  4.3109428E+01
 1.8812815E+01  4.3427643E+01
 1.8834351E+01  4.3401436E+01
 1.8855888E+01  4.3232342E+01
 1.8877426E+01  4.3081421E+01
 1.8898962E+01  4.3050926E+01
 1.8920500E+01  4.3143417E+01
 1.8942038E+01  4.3231464E+01
 1.8963575E+01  4.3161972E+01
 1.8985111E+01  4.3180252E+01
 1.9006649E+01  4.3216896E+01
 1.9028187E+01  4.3178909E+01
 1.9049725E+01  4.3206135E+01
 1.9071260E+01  4.3267738E+01
 1.9092798E+01  4.3342083E+01
 1.9114336E+01  4.3483906E+01
 1.9135874E+01  4.3643421E+01
 1.9157410E+01  4.3804226E+01
 1.9178947E+01  4.3907070E+01
 1.9200485E+01  4.3984070E+01
 1.9222023E+01  4.4048103E+01
 1.9243559E+01  4.4163937E+01
 1.9265097E+01  4.4237858E+01
 1.9286634E+01  4.4413940E+01
 1.9308170E+01  4.4523014E+01
 1.9329708E+01  4.4662918E+01
 1.9351246E+01  4.4888390E+01
 1.9372784E+01  4.5223915E+01
 1.9394320E+01  4.5644680E+01
 1.9415857E+01  4.5824665E+01
 1.9437395E+01  4.5842758E+01
 1.9458933E+01  4.5760094E+01
 1.9480469E+01  4.5562309E+01
 1.9502007E+01  4.5441433E+01
 1.9523544E+01  4.5455135E+01
 1.9545082E+01  4.5450680E+01
 1.9566618E+01  4.5492924E+01
 1.9588156E+01  4.5574783E+01
 1.9609694E+01  4.5633781E+01
 1.9631231E+01  4.5632832E+01
 1.9652767E+01  4.5779667E+01
 1.9674305E+01  4.5936085E+01
 1.9695843E+01  4.5942745E+01
 1.9717381E+01  4.5993679E+01
 1.9738916E+01  4.6129372E+01
 1.9760454E+01  4.6331501E+01
 1.9781992E+01  4.6500553E+01
 1.9803528E+01  4.6595852E+01
 1.9825066E+01  4.6607574E+01
 1.9846603E+01  4.6548595E+01
 1.9868141E+01  4.6537899E+01
 1.9889677E+01  4.6685261E+01
 1.9911215E+01  4.6829983E+01
 1.9932753E+01  4.7002815E+01
 1.9954290E+01  4.7079903E+01
 1.9975826E+01  4.7111507E+01
 1.9997364E+01  4.7178684E+01
 2.0018902E+01  4.7382568E+01
 2.0040440E+01  4.7558575E+01
 2.0061975E+01  4.7658215E+01
 2.0083513E+01  4.7796589E+01
 2.0105051E+01  4.7967617E+01
 2.0126589E+01  4.8117756E+01
 2.0148125E+01  4.8365265E+01
 2.0169662E+01  4.8634537E+01
 2.0191200E+01  4.8859043E+01
 2.0212736E+01  4.8926888E+01
 2.0234274E+01  4.8959370E+01
 2.0255812E+01  4.8951649E+01
 2.0277349E+01  4.9082188E+01
 2.0298885E+01  4.9155655E+01
 2.0320423E+01  4.9230103E+01
 2.0341961E+01  4.9396816E+01
 2.0363499E+01  4.9644215E+01
 2.0385035E+01  4.9834286E+01
 2.0406572E+01  4.9968765E+01
 2.0428110E+01  5.0208759E+01
 2.0449648E+01  5.0648327E+01
 2.0471184E+01  5.1132866E+01
 2.0492722E+01  5.1643291E+01
 2.0514259E+01  5.2132214E+01
 2.0535797E+01  5.2580612E+01
 2.0557333E+01  5.2909672E+01
 2.0578871E+01  5.3293625E+01
 2.0600409E+01  5.3819290E+01
 2.0621944E+01  5.4464844E+01
 2.0643482E+01  5.5224945E+01
 2.0665020E+01  5.6404560E+01
 2.0686558E+01  5.8542110E+01
 2.0708094E+01  6.1686897E+01
 2.0729631E+01  6.4855774E+01
 2.0751169E+01  6.6130470E+01
 2.0772707E+01  6.4655273E+01
 2.0794243E+01  6.1222919E+01
 2.0815781E+01  5.8026142E+01
 2.0837318E+01  5.6053307E+01
 2.0858856E+01  5.4944481E+01
 2.0880392E+01  5.4113804E+01
 2.0901930E+01  5.3510468E+01
 2.0923468E+01  5.2961460E+01
 2.0945005E+01  5.2599449E+01
 2.0966541E+01  5.2327808E+01
 2.0988079E+01  5.2116566E+01
 2.1009617E+01  5.1885277E+01
 2.1031153E+01  5.1713589E+01
 2.1052691E+01  5.1610336E+01
 2.1074228E+01  5.1513260E+01
 2.1095766E+01  5.1498352E+01
 2.1117302E+01  5.1437252E+01
 2.1138840E+01  5.1329319E+01
 2.1160378E+01  5.1416821E+01
 2.1181915E+01  5.1593216E+01
 2.1203451E+01  5.1603172E+01
 2.1224989E+01  5.1383583E+01
 2.1246527E+01  5.1054249E+01
 2.1268064E+01  5.0849579E+01
 2.1289600E+01  5.0677631E+01
 2.1311138E+01  5.0556427E+01
 2.1332676E+01  5.0384071E+01
 2.1354214E+01  5.0252754E+01
 2.1375750E+01  5.0157337E+01
 2.1397287E+01  5.0140205E+01
 2.1418825E+01  5.0157333E+01
 2.1440361E+01  5.0171589E+01
 2.1461899E+01  5.0182205E+01
 2.1483437E+01  5.0073135E+01
 2.1504974E+01  4.9954369E+01
 2.1526510E+01  4.9868740E+01
 2.1548048E+01  4.9831642E+01
 2.1569586E+01  4.9863739E+01
 2.1591124E+01  4.9858704E+01
 2.1612659E+01  4.9916389E+01
 2.1634197E+01  4.9955959E+01
 2.1655735E+01  4.9886562E+01
 2.1677273E+01  4.9839653E+01
 2.1698809E+01  4.9862740E+01
 2.1720346E+01  4.9976620E+01
 2.1741884E+01  5.0075459E+01
 2.1763422E+01  5.0080269E+01
 2.1784958E+01  5.0268566E+01
 2.1806496E+01  5.0592617E+01
 2.1828033E+01  5.0874561E+01
 2.1849569E+01  5.0787094E+01
 2.1871107E+01  5.0438129E+01
 2.1892645E+01  5.0216557E+01
 2.1914183E+01  5.0045551E+01
 2.1935719E+01  4.9747517E+01
 2.1957256E+01  4.9445244E+01
 2.1978794E+01  4.9112503E+01
 2.2000332E+01  4.8987640E+01
 2.2021868E+01  4.8971546E+01
 2.2043406E+01  4.8872562E+01
 2.2064943E+01  4.8706001E+01
 2.2086481E+01  4.8616127E+01
 2.2108017E+01  4.8685608E+01
 2.2129555E+01  4.8708996E+01
 2.2151093E+01  4.8598072E+01
 2.2172630E+01  4.8541134E+01
 2.2194166E+01  4.8562267E+01
 2.2215704E+01  4.8640606E+01
 2.2237242E+01  4.8680782E+01
 2.2258780E+01  4.8726830E+01
 2.2280315E+01  4.8903099E+01
 2.2301853E+01  4.8947422E+01
 2.2323391E+01  4.8929352E+01
 2.2344927E+01  4.8918514E+01
 2.2366465E+01  4.8812920E+01
 2.2388002E+01  4.8812046E+01
 2.2409540E+01  4.9012947E+01
 2.2431076E+01  4.9333099E+01
 2.2452614E+01  4.9894985E+01
 2.2474152E+01  5.0800678E+01
 2.2495689E+01  5.1859215E+01
 2.2517225E+01  5.2858105E+01
 2.2538763E+01  5.3764503E+01
 2.2560301E+01  5.4596191E+01
 2.2581839E+01  5.5073795E+01
 2.2603374E+01  5.5330692E+01
 2.2624912E+01  5.5362541E+01
 2.2646450E+01  5.4720268E+01
 2.2667988E+01  5.3550262E+01
 2.2689524E+01  5.2437973E+01
 2.2711061E+01  5.1659710E+01
 2.2732599E+01  5.1035580E+01
 2.2754135E+01  5.0407082E+01
 2.2775673E+01  4.9976879E+01
 2.2797211E+01  4.9899029E+01
 2.2818748E+01  5.0298973E+01
 2.2840284E+01  5.1161575E+01
 2.2861822E+01  5.2266441E+01
 2.2883360E+01  5.3249020E+01
 2.2904898E+01  5.4195366E+01
 2.2926434E+01  5.4578465E+01
 2.2947971E+01  5.3160648E+01
 2.2969509E+01  5.1253136E+01
 2.2991047E+01  4.9984463E+01
 2.3012583E+01  4.9211994E+01
 2.3034121E+01  4.8594120E+01
 2.3055658E+01  4.7961174E+01
 2.3077196E+01  4.7349884E+01
 2.3098732E+01  4.6983593E+01
 2.3120270E+01  4.6689793E+01
 2.3141808E+01  4.6393948E+01
 2.3163343E+01  4.6107235E+01
 2.3184881E+01  4.5771317E+01
 2.3206419E+01  4.5643192E+01
 2.3227957E+01  4.5732471E+01
 2.3249493E+01  4.5905777E+01
 2.3271030E+01  4.6023624E+01
 2.3292568E+01  4.6195091E+01
 2.3314106E+01  4.6431808E+01
 2.3335642E+01  4.6593979E+01
 2.3357180E+01  4.6678570E+01
 2.3378717E+01  4.6541943E+01
 2.3400255E+01  4.6224262E+01
 2.3421791E+01  4.5824589E+01
 2.3443329E+01  4.5503902E+01
 2.3464867E+01  4.5246311E+01
 2.3486404E+01  4.5064690E+01
 2.3507940E+01  4.4945717E+01
 2.3529478E+01  4.4815453E+01
 2.3551016E+01  4.4794403E+01
 2.3572552E+01  4.4744854E+01
 2.3594090E+01  4.4604740E+01
 2.3615627E+01  4.4462811E+01
 2.3637165E+01  4.4361340E+01
 2.3658701E+01  4.4409779E+01
 2.3680239E+01  4.4507782E+01
 2.3701777E+01  4.4636822E+01
 2.3723314E+01  4.4892002E+01
 2.3744850E+01  4.4953926E+01
 2.3766388E+01  4.4918179E+01
 2.3787926E+01  4.4847328E+01
 2.3809464E+01  4.4593060E+01
 2.3830999E+01  4.4337353E+01
 2.3852537E+01  4.4011707E+01
 2.3874075E+01  4.3795216E+01
 2.3895613E+01  4.3754601E+01
 2.3917149E+01  4.3678894E+01
 2.3938686E+01  4.3751133E+01
 2.3960224E+01  4.3903419E+01
 2.3981760E+01  4.4028419E+01
 2.4003298E+01  4.4318611E+01
 2.4024836E+01  4.4837841E+01
 2.4046373E+01  4.5570221E+01
 2.4067909E+01  4.6191166E+01
 2.4089447E+01  4.6306820E+01
 2.4110985E+01  4.5768219E+01
 2.4132523E+01  4.5017826E+01
 2.4154058E+01  4.4349632E+01
 2.4175596E+01  4.3737274E+01
 2.4197134E+01  4.3083790E+01
 2.4218672E+01  4.2486382E+01
 2.4240208E+01  4.2070576E+01
 2.4261745E+01  4.1828911E+01
 2.4283283E+01  4.1730103E+01
 2.4304821E+01  4.1631157E+01
 2.4326357E+01  4.1630646E+01
 2.4347895E+01  4.1552731E+01
 2.4369432E+01  4.1488411E+01
 2.4390968E+01  4.1482407E+01
 2.4412506E+01  4.1492962E+01
 2.4434044E+01  4.1592667E+01
 2.4455582E+01  4.1680084E+01
 2.4477118E+01  4.1880322E+01
 2.4498655E+01  4.2048763E+01
 2.4520193E+01  4.2100971E+01
 2.4541731E+01  4.2212315E+01
 2.4563267E+01  4.2254913E+01
 2.4584805E+01  4.2197689E+01
 2.4606342E+01  4.2160408E+01
 2.4627880E+01  4.2063148E+01
 2.4649416E+01  4.1856258E+01
 2.4670954E+01  4.1613289E+01
 2.4692492E+01  4.1423332E+01
 2.4714029E+01  4.1200829E+01
 2.4735565E+01  4.1003212E+01
 2.4757103E+01  4.0855480E+01
 2.4778641E+01  4.0690598E+01
 2.4800179E+01  4.0469101E+01
 2.4821714E+01  4.0240555E+01
 2.4843252E+01  4.0114212E+01
 2.4864790E+01  4.0011013E+01
 2.4886326E+01  3.9895424E+01
 2.4907864E+01  3.9923412E+01
 2.4929401E+01  3.9841442E+01
 2.4950939E+01  3.9727028E+01
 2.4972475E+01  3.9610394E+01
 2.4994013E+01  3.9478188E+01
 2.5015551E+01  3.9431236E+01
 2.5037088E+01  3.9336082E+01
 2.5058624E+01  3.9266571E+01
 2.5080162E+01  3.9296272E+01
 2.5101700E+01  3.9316799E+01
 2.5123238E+01  3.9440895E+01
 2.5144773E+01  3.9567844E+01
 2.5166311E+01  3.9709190E+01
 2.5187849E+01  3.9764347E+01
 2.5209387E+01  3.9716133E+01
 2.5230923E+01  3.9754333E+01
 2.5252460E+01  3.9802479E+01
 2.5273998E+01  3.9738155E+01
 2.5295534E+01  3.9568188E+01
 2.5317072E+01  3.9352837E+01
 2.5338610E+01  3.9180546E+01
 2.5360147E+01  3.8996239E+01
 2.5381683E+01  3.8808193E+01
 2.5403221E+01  3.8669140E+01
 2.5424759E+01  3.8600143E+01
 2.5446297E+01  3.8604546E+01
 2.5467833E+01  3.8559387E+01
 2.5489370E+01  3.8456245E+01
 2.5510908E+01  3.8473221E+01
 2.5532446E+01  3.8536964E+01
 2.5553982E+01  3.8546062E+01
 2.5575520E+01  3.8636383E+01
 2.5597057E+01  3.8725601E+01
 2.5618595E+01  3.8826706E+01
 2.5640131E+01  3.8947235E+01
 2.5661669E+01  3.8986145E+01
 2.5683207E+01  3.8993225E+01
 2.5704742E+01  3.9041317E+01
 2.5726280E+01  3.8992443E+01
 2.5747818E+01  3.8976826E+01
 2.5769356E+01  3.8968822E+01
 2.5790892E+01  3.8848766E+01
 2.5812429E+01  3.8751884E+01
 2.5833967E+01  3.8626007E+01
 2.5855505E+01  3.8503178E+01
 2.5877041E+01  3.8473862E+01
 2.5898579E+01  3.8473801E+01
 2.5920116E+01  3.8370358E+01
 2.5941654E+01  3.8309097E+01
 2.5963190E+01  3.8387676E+01
 2.5984728E+01  3.8510010E+01
 2.6006266E+01  3.8563244E+01
 2.6027803E+01  3.8690014E+01
 2.6049339E+01  3.8739220E+01
 2.6070877E+01  3.8779339E+01
 2.6092415E+01  3.8764114E+01
 2.6113951E+01  3.8596447E+01
 2.6135489E+01  3.8489697E+01
 2.6157026E+01  3.8468899E+01
 2.6178564E+01  3.8374226E+01
 2.6200100E+01  3.8304565E+01
 2.6221638E+01  3.8233280E+01
 2.6243176E+01  3.8046776E+01
 2.6264713E+01  3.7908844E+01
 2.6286249E+01  3.7884705E+01
 2.6307787E+01  3.7844189E+01
 2.6329325E+01  3.7759945E+01
 2.6350863E+01  3.7769466E+01
 2.6372398E+01  3.7822914E+01
 2.6393936E+01  3.7874657E+01
 2.6415474E+01  3.7833675E+01
 2.6437012E+01  3.7813198E+01
 2.6458548E+01  3.7765083E+01
 2.6480085E+01  3.7872189E+01
 2.6501623E+01  3.7949669E+01
 2.6523159E+01  3.7932392E+01
 2.6544697E+01  3.7851059E+01
 2.6566235E+01  3.7791718E+01
 2.6587772E+01  3.7832890E+01
 2.6609308E+01  3.7865078E+01
 2.6630846E+01  3.7789768E+01
 2.6652384E+01  3.7807556E+01
 2.6673922E+01  3.7929455E+01
 2.6695457E+01  3.7952644E+01
 2.6716995E+01  3.7950302E+01
 2.6738533E+01  3.8005058E+01
 2.6760071E+01  3.8018753E+01
 2.6781607E+01  3.8013538E+01
 2.6803144E+01  3.8068352E+01
 2.6824682E+01  3.8124855E+01
 2.6846220E+01  3.8106789E+01
 2.6867756E+01  3.8127880E+01
 2.6889294E+01  3.8218636E+01
 2.6910831E+01  3.8237335E+01
 2.6932367E+01  3.8319225E+01
 2.6953905E+01  3.8445580E+01
 2.6975443E+01  3.8541431E+01
 2.6996981E+01  3.8568989E+01
 2.7018517E+01  3.8539452E+01
 2.7040054E+01  3.8581230E+01
 2.7061592E+01  3.8661266E+01
 2.7083130E+01  3.8772655E+01
 2.7104666E+01  3.8794765E+01
 2.7126204E+01  3.8885437E+01
 2.7147741E+01  3.8917946E+01
 2.7169279E+01  3.8947884E+01
 2.7190815E+01  3.9021427E+01
 2.7212353E+01  3.9055820E+01
 2.7233891E+01  3.9031620E+01
 2.7255428E+01  3.8957306E+01
 2.7276964E+01  3.8906113E+01
 2.7298502E+01  3.8900585E+01
 2.7320040E+01  3.8969841E+01
 2.7341578E+01  3.9187984E+01
 2.7363113E+01  3.9439671E+01
 2.7384651E+01  3.9715736E+01
 2.7406189E+01  3.9955982E+01
 2.7427725E+01  4.0261066E+01
 2.7449263E+01  4.0552551E+01
 2.7470800E+01  4.0706188E+01
 2.7492338E+01  4.0849899E+01
 2.7513874E+01  4.0884777E+01
 2.7535412E+01  4.0859894E+01
 2.7556950E+01  4.0856895E+01
 2.7578487E+01  4.0875172E+01
 2.7600023E+01  4.0941090E+01
 2.7621561E+01  4.0965374E+01
 2.7643099E+01  4.0871067E+01
 2.7664637E+01  4.0461163E+01
 2.7686172E+01  4.0106411E+01
 2.7707710E+01  3.9873482E+01
 2.7729248E+01  3.9637051E+01
 2.7750786E+01  3.9498543E+01
 2.7772322E+01  3.9343037E+01
 2.7793859E+01  3.9271152E+01
 2.7815397E+01  3.9316948E+01
 2.7836933E+01  3.9348888E+01
 2.7858471E+01  3.9314381E+01
 2.7880009E+01  3.9229446E+01
 2.7901546E+01  3.9189999E+01
 2.7923082E+01  3.9258133E+01
 2.7944620E+01  3.9286476E+01
 2.7966158E+01  3.9369957E+01
 2.7987696E+01  3.9396595E+01
 2.8009232E+01  3.9408234E+01
 2.8030769E+01  3.9465816E+01
 2.8052307E+01  3.9507179E+01
 2.8073845E+01  3.9569950E+01
 2.8095381E+01  3.9574818E+01
 2.8116919E+01  3.9582291E+01
 2.8138456E+01  3.9661674E+01
 2.8159994E+01  3.9718235E+01
 2.8181530E+01  3.9835361E+01
 2.8203068E+01  3.9874962E+01
 2.8224606E+01  3.9923508E+01
 2.8246141E+01  4.0013424E+01
 2.8267679E+01  4.0136803E+01
 2.8289217E+01  4.0161789E+01
 2.8310755E+01  4.0290924E+01
 2.8332291E+01  4.0435940E+01
 2.8353828E+01  4.0601852E+01
 2.8375366E+01  4.0769753E+01
 2.8396904E+01  4.1005512E+01
 2.8418440E+01  4.1206425E+01
 2.8439978E+01  4.1392220E+01
 2.8461515E+01  4.1525230E+01
 2.8483053E+01  4.1718914E+01
 2.8504589E+01  4.1906590E+01
 2.8526127E+01  4.2166595E+01
 2.8547665E+01  4.2464626E+01
 2.8569202E+01  4.2624287E+01
 2.8590738E+01  4.2747288E+01
 2.8612276E+01  4.2747921E+01
 2.8633814E+01  4.2825191E+01
 2.8655350E+01  4.3152180E+01
 2.8676888E+01  4.3290943E+01
 2.8698425E+01  4.3074879E+01
 2.8719963E+01  4.2786205E+01
 2.8741499E+01  4.2769341E+01
 2.8763037E+01  4.3052841E+01
 2.8784575E+01  4.3122993E+01
 2.8806112E+01  4.2842243E+01
 2.8827648E+01  4.2567802E+01
 2.8849186E+01  4.2321709E+01
 2.8870724E+01  4.2056084E+01
 2.8892262E+01  4.1900009E+01
 2.8913797E+01  4.1759853E+01
 2.8935335E+01  4.1585148E+01
 2.8956873E+01  4.1418297E+01
 2.8978411E+01  4.1321392E+01
 2.8999947E+01  4.1284710E+01
 2.9021484E+01  4.1330414E+01
 2.9043022E+01  4.1422539E+01
 2.9064558E+01  4.1427319E+01
 2.9086096E+01  4.1419838E+01
 2.9107634E+01  4.1434364E+01
 2.9129171E+01  4.1421314E+01
 2.9150707E+01  4.1412838E+01
 2.9172245E+01  4.1322552E+01
 2.9193783E+01  4.1280762E+01
 2.9215321E+01  4.1244350E+01
 2.9236856E+01  4.1243706E+01
 2.9258394E+01  4.1256123E+01
 2.9279932E+01  4.1248535E+01
 2.9301470E+01  4.1290318E+01
 2.9323006E+01  4.1273647E+01
 2.9344543E+01  4.1186657E+01
 2.9366081E+01  4.1084949E+01
 2.9387619E+01  4.0993336E+01
 2.9409155E+01  4.0951588E+01
 2.9430693E+01  4.0884827E+01
 2.9452230E+01  4.0841003E+01
 2.9473768E+01  4.0839386E+01
 2.9495304E+01  4.0776279E+01
 2.9516842E+01  4.0752769E+01
 2.9538380E+01  4.0743793E+01
 2.9559916E+01  4.0805515E+01
 2.9581453E+01  4.0834438E+01
 2.9602991E+01  4.0844433E+01
 2.9624529E+01  4.0812008E+01
 2.9646065E+01  4.0814281E+01
 2.9667603E+01  4.0928349E+01
 2.9689140E+01  4.1235615E+01
 2.9710678E+01  4.1380329E+01
 2.9732214E+01  4.1482456E+01
 2.9753752E+01  4.1519341E+01
 2.9775290E+01  4.1506054E+01
 2.9796827E+01  4.1437775E+01
 2.9818363E+01  4.1517139E+01
 2.9839901E+01  4.1513889E+01
 2.9861439E+01  4.1625599E+01
 2.9882977E+01  4.1827526E+01
 2.9904512E+01  4.2000256E+01
 2.9926050E+01  4.2129734E+01
 2.9947588E+01  4.2154137E+01
 2.9969124E+01  4.2079525E+01
 2.9990662E+01  4.1777397E+01
 3.0012199E+01  4.1531872E+01
 3.0033737E+01  4.1417576E+01
 3.0055273E+01  4.1349712E+01
 3.0076811E+01  4.1289066E+01
 3.0098349E+01  4.1241184E+01
 3.0119886E+01  4.1250023E+01
 3.0141422E+01  4.1247463E+01
 3.0162960E+01  4.1306515E+01
 3.0184498E+01  4.1148903E+01
 3.0206036E+01  4.0934315E+01
 3.0227571E+01  4.0653965E+01
 3.0249109E+01  4.0422447E+01
 3.0270647E+01  4.0310966E+01
 3.0292185E+01  4.0302269E+01
 3.0313721E+01  4.0210995E+01
 3.0335258E+01  4.0175671E+01
 3.0356796E+01  4.0145184E+01
 3.0378332E+01  4.0098602E+01
 3.0399870E+01  4.0167690E+01
 3.0421408E+01  4.0295197E+01
 3.0442945E+01  4.0333584E+01
 3.0464481E+01  4.0348763E+01
 3.0486019E+01  4.0458172E+01
 3.0507557E+01  4.0478119E+01
 3.0529095E+01  4.0442146E+01
 3.0550631E+01  4.0456318E+01
 3.0572168E+01  4.0401161E+01
 3.0593706E+01  4.0266830E+01
 3.0615244E+01  4.0272175E+01
 3.0636780E+01  4.0387081E+01
 3.0658318E+01  4.0353355E+01
 3.0679855E+01  4.0352863E+01
 3.0701393E+01  4.0403904E+01
 3.0722929E+01  4.0374397E+01
 3.0744467E+01  4.0324051E+01
 3.0766005E+01  4.0214733E+01
 3.0787540E+01  4.0132084E+01
 3.0809078E+01  4.0131535E+01
 3.0830616E+01  4.0035629E+01
 3.0852154E+01  4.0044193E+01
 3.0873690E+01  4.0133221E+01
 3.0895227E+01  4.0168198E+01
 3.0916765E+01  4.0052151E+01
 3.0938303E+01  3.9915115E+01
 3.0959839E+01  3.9888428E+01
 3.0981377E+01  3.9843582E+01
 3.1002914E+01  3.9830051E+01
 3.1024452E+01  3.9804974E+01
 3.1045988E+01  3.9796211E+01
 3.1067526E+01  3.9824974E+01
 3.1089064E+01  3.9787689E+01
 3.1110601E+01  3.9744904E+01
 3.1132137E+01  3.9697613E+01
 3.1153675E+01  3.9736660E+01
 3.1175213E+01  3.9592358E+01
 3.1196749E+01  3.9479553E+01
 3.1218287E+01  3.9450455E+01
 3.1239824E+01  3.9362354E+01
 3.1261362E+01  3.9191982E+01
 3.1282898E+01  3.9011826E+01
 3.1304436E+01  3.8892467E+01
 3.1325974E+01  3.8848782E+01
 3.1347511E+01  3.8825516E+01
 3.1369047E+01  3.8812145E+01
 3.1390585E+01  3.8799744E+01
 3.1412123E+01  3.8809116E+01
 3.1433661E+01  3.8749737E+01
 3.1455196E+01  3.8678230E+01
 3.1476734E+01  3.8665657E+01
 3.1498272E+01  3.8723980E+01
 3.1519810E+01  3.8780251E+01
 3.1541346E+01  3.8879791E+01
 3.1562883E+01  3.8932007E+01
 3.1584421E+01  3.8937248E+01
 3.1605957E+01  3.8917953E+01
 3.1627495E+01  3.8967789E+01
 3.1649033E+01  3.9001354E+01
 3.1670570E+01  3.8987911E+01
 3.1692106E+01  3.8976254E+01
 3.1713644E+01  3.8967163E+01
 3.1735182E+01  3.8920155E+01
 3.1756720E+01  3.8817295E+01
 3.1778255E+01  3.8722015E+01
 3.1799793E+01  3.8663239E+01
 3.1821331E+01  3.8646412E+01
 3.1842869E+01  3.8612560E+01
 3.1864405E+01  3.8542774E+01
 3.1885942E+01  3.8513035E+01
 3.1907480E+01  3.8379940E+01
 3.1929018E+01  3.8267071E+01
 3.1950554E+01  3.8212727E+01
 3.1972092E+01  3.8122822E+01
 3.1993629E+01  3.7998672E+01
 3.2015167E+01  3.7948025E+01
 3.2036705E+01  3.7813484E+01
 3.2058239E+01  3.7724091E+01
 3.2079777E+01  3.7769627E+01
 3.2101315E+01  3.7765388E+01
 3.2122852E+01  3.7715363E+01
 3.2144390E+01  3.7761456E+01
 3.2165928E+01  3.7775501E+01
 3.2187466E+01  3.7698502E+01
 3.2209003E+01  3.7692814E+01
 3.2230537E+01  3.7716545E+01
 3.2252075E+01  3.7738247E+01
 3.2273613E+01  3.7738377E+01
 3.2295151E+01  3.7697483E+01
 3.2316689E+01  3.7719650E+01
 3.2338226E+01  3.7755119E+01
 3.2359764E+01  3.7702995E+01
 3.2381302E+01  3.7614746E+01
 3.2402836E+01  3.7628128E+01
 3.2424374E+01  3.7768688E+01
 3.2445911E+01  3.7886696E+01
 3.2467449E+01  3.7865868E+01
 3.2488987E+01  3.7795403E+01
 3.2510525E+01  3.7770981E+01
 3.2532063E+01  3.7807003E+01
 3.2553596E+01  3.7757908E+01
 3.2575134E+01  3.7778374E+01
 3.2596672E+01  3.7796074E+01
 3.2618210E+01  3.7887871E+01
 3.2639748E+01  3.7996567E+01
 3.2661285E+01  3.8027660E+01
 3.2682823E+01  3.8081509E+01
 3.2704361E+01  3.8244774E+01
 3.2725895E+01  3.8324585E+01
 3.2747433E+01  3.8411583E+01
 3.2768970E+01  3.8524864E+01
 3.2790508E+01  3.8490261E+01
 3.2812046E+01  3.8427624E+01
 3.2833584E+01  3.8347584E+01
 3.2855122E+01  3.8301632E+01
 3.2876656E+01  3.8296822E+01
 3.2898193E+01  3.8345215E+01
 3.2919731E+01  3.8402504E+01
 3.2941269E+01  3.8375374E+01
 3.2962807E+01  3.8296432E+01
 3.2984344E+01  3.8125729E+01
 3.3005882E+01  3.8085091E+01
 3.3027420E+01  3.8013870E+01
 3.3048954E+01  3.7990353E+01
 3.3070492E+01  3.7896278E+01
 3.3092030E+01  3.7669010E+01
 3.3113567E+01  3.7482422E+01
 3.3135105E+01  3.7385597E+01
 3.3156643E+01  3.7323029E+01
 3.3178181E+01  3.7240253E+01
 3.3199718E+01  3.7121635E+01
 3.3221252E+01  3.7042446E+01
 3.3242790E+01  3.7005440E+01
 3.3264328E+01  3.7048096E+01
 3.3285866E+01  3.6964264E+01
 3.3307404E+01  3.6953426E+01
 3.3328941E+01  3.7023281E+01
 3.3350479E+01  3.7181618E+01
 3.3372013E+01  3.7388393E+01
 3.3393551E+01  3.7662350E+01
 3.3415089E+01  3.7648029E+01
 3.3436626E+01  3.7319057E+01
 3.3458164E+01  3.7158863E+01
 3.3479702E+01  3.7055183E+01
 3.3501240E+01  3.7053379E+01
 3.3522778E+01  3.6945679E+01
 3.3544312E+01  3.6909176E+01
 3.3565849E+01  3.6998669E+01
 3.3587387E+01  3.6986938E+01
 3.3608925E+01  3.6957264E+01
 3.3630463E+01  3.7052937E+01
 3.3652000E+01  3.7127842E+01
 3.3673538E+01  3.7109684E+01
 3.3695076E+01  3.7152180E+01
 3.3716610E+01  3.7128525E+01
 3.3738148E+01  3.7117676E+01
 3.3759686E+01  3.6986477E+01
 3.3781223E+01  3.6895329E+01
 3.3802761E+01  3.6925144E+01
 3.3824299E+01  3.6931309E+01
 3.3845837E+01  3.6936588E+01
 3.3867371E+01  3.6889675E+01
 3.3888908E+01  3.6947311E+01
 3.3910446E+01  3.6931797E+01
 3.3931984E+01  3.6940002E+01
 3.3953522E+01  3.6924812E+01
 3.3975060E+01  3.6897221E+01
 3.3996597E+01  3.7031799E+01
 3.4018135E+01  3.7129749E+01
 3.4039669E+01  3.7132450E+01
 3.4061207E+01  3.7095348E+01
 3.4082745E+01  3.7199959E+01
 3.4104282E+01  3.7377724E+01
 3.4125820E+01  3.7429619E+01
 3.4147358E+01  3.7486694E+01
 3.4168896E+01  3.7551022E+01
 3.4190430E+01  3.7612652E+01
 3.4211967E+01  3.7736870E+01
 3.4233505E+01  3.7875732E+01
 3.4255043E+01  3.8010353E+01
 3.4276581E+01  3.8016304E+01
 3.4298119E+01  3.8107151E+01
 3.4319656E+01  3.8133034E+01
 3.4341194E+01  3.8058235E+01
 3.4362728E+01  3.8083405E+01
 3.4384266E+01  3.8115898E+01
 3.4405804E+01  3.8072445E+01
 3.4427341E+01  3.8079147E+01
 3.4448879E+01  3.8185959E+01
 3.4470417E+01  3.8138283E+01
 3.4491955E+01  3.8083118E+01
 3.4513493E+01  3.8175518E+01
 3.4535027E+01  3.8209789E+01
 3.4556564E+01  3.8229931E+01
 3.4578102E+01  3.8209766E+01
 3.4599640E+01  3.8204700E+01
 3.4621178E+01  3.8163952E+01
 3.4642715E+01  3.8167229E+01
 3.4664253E+01  3.8064064E+01
 3.4685787E+01  3.7990726E+01
 3.4707325E+01  3.7932117E+01
 3.4728863E+01  3.7830700E+01
 3.4750401E+01  3.7721828E+01
 3.4771938E+01  3.7681091E+01
 3.4793476E+01  3.7692249E+01
 3.4815014E+01  3.7674915E+01
 3.4836552E+01  3.7512352E+01
 3.4858086E+01  3.7427303E+01
 3.4879623E+01  3.7389114E+01
 3.4901161E+01  3.7355217E+01
 3.4922699E+01  3.7307915E+01
 3.4944237E+01  3.7222237E+01
 3.4965775E+01  3.7184013E+01
 3.4987312E+01  3.7150703E+01
 3.5008846E+01  3.7059322E+01
 3.5030384E+01  3.7090355E+01
 3.5051922E+01  3.7094887E+01
 3.5073460E+01  3.7007435E+01
 3.5094997E+01  3.6988464E+01
 3.5116535E+01  3.6874477E+01
 3.5138073E+01  3.6788441E+01
 3.5159611E+01  3.6781296E+01
 3.5181145E+01  3.6838394E+01
 3.5202682E+01  3.6794506E+01
 3.5224220E+01  3.6766796E+01
 3.5245758E+01  3.6801682E+01
 3.5267296E+01  3.6772606E+01
 3.5288834E+01  3.6720718E+01
 3.5310371E+01  3.6733177E+01
 3.5331909E+01  3.6943394E+01
 3.5353443E+01  3.7164360E+01
 3.5374981E+01  3.7312824E+01
 3.5396519E+01  3.7351246E+01
 3.5418056E+01  3.7350330E+01
 3.5439594E+01  3.7297104E+01
 3.5461132E+01  3.7328667E+01
 3.5482670E+01  3.7341442E+01
 3.5504204E+01  3.7303085E+01
 3.5525742E+01  3.7207596E+01
 3.5547279E+01  3.7186325E+01
 3.5568817E+01  3.7099800E+01
 3.5590355E+01  3.7075333E+01
 3.5611893E+01  3.7060650E+01
 3.5633430E+01  3.7027641E+01
 3.5654968E+01  3.6926884E+01
 3.5676502E+01  3.6833622E+01
 3.5698040E+01  3.6858894E+01
 3.5719578E+01  3.7052216E+01
 3.5741116E+01  3.7335487E+01
 3.5762653E+01  3.7467979E+01
 3.5784191E+01  3.7575100E+01
 3.5805729E+01  3.7491817E+01
 3.5827267E+01  3.7310642E+01
 3.5848801E+01  3.7215324E+01
 3.5870338E+01  3.7197990E+01
 3.5891876E+01  3.7041103E+01
 3.5913414E+01  3.6908482E+01
 3.5934952E+01  3.6846493E+01
 3.5956490E+01  3.6829399E+01
 3.5978027E+01  3.6821003E+01
 3.5999561E+01  3.6820698E+01
 3.6021099E+01  3.6836704E+01
 3.6042637E+01  3.6859684E+01
 3.6064175E+01  3.6804588E+01
 3.6085712E+01  3.6792542E+01
 3.6107250E+01  3.6804970E+01
 3.6128788E+01  3.6856487E+01
 3.6150326E+01  3.6909702E+01
 3.6171860E+01  3.6892918E+01
 3.6193398E+01  3.6880966E+01
 3.6214935E+01  3.6856194E+01
 3.6236473E+01  3.6887981E+01
 3.6258011E+01  3.6964523E+01
 3.6279549E+01  3.7073738E+01
 3.6301086E+01  3.6981617E+01
 3.6322620E+01  3.6936131E+01
 3.6344158E+01  3.6972229E+01
 3.6365696E+01  3.7080059E+01
 3.6387234E+01  3.7176025E+01
 3.6408772E+01  3.7002380E+01
 3.6430309E+01  3.7045792E+01
 3.6451847E+01  3.7180897E+01
 3.6473385E+01  3.7265179E+01
 3.6494919E+01  3.7283298E+01
 3.6516457E+01  3.7272293E+01
 3.6537994E+01  3.7244526E+01
 3.6559532E+01  3.7239014E+01
 3.6581070E+01  3.7268940E+01
 3.6602608E+01  3.7323502E+01
 3.6624146E+01  3.7319515E+01
 3.6645683E+01  3.7387974E+01
 3.6667217E+01  3.7345703E+01
 3.6688755E+01  3.7352863E+01
 3.6710293E+01  3.7425697E+01
 3.6731831E+01  3.7439247E+01
 3.6753368E+01  3.7398838E+01
 3.6774906E+01  3.7371902E+01
 3.6796444E+01  3.7376305E+01
 3.6817978E+01  3.7389534E+01
 3.6839516E+01  3.7427898E+01
 3.6861053E+01  3.7476994E+01
 3.6882591E+01  3.7611874E+01
 3.6904129E+01  3.7624210E+01
 3.6925667E+01  3.7657829E+01
 3.6947205E+01  3.7760204E+01
 3.6968742E+01  3.7700912E+01
 3.6990276E+01  3.7678249E+01
 3.7011814E+01  3.7723522E+01
 3.7033352E+01  3.7650974E+01
 3.7054890E+01  3.7589577E+01
 3.7076427E+01  3.7526756E+01
 3.7097965E+01  3.7651619E+01
 3.7119503E+01  3.7705345E+01
 3.7141037E+01  3.7700726E+01
 3.7162575E+01  3.7724335E+01
 3.7184113E+01  3.7749619E+01
 3.7205650E+01  3.7719868E+01
 3.7227188E+01  3.7532726E+01
 3.7248726E+01  3.7488045E+01
 3.7270264E+01  3.7393185E+01
 3.7291801E+01  3.7422127E+01
 3.7313335E+01  3.7457924E+01
 3.7334873E+01  3.7556286E+01
 3.7356411E+01  3.7659580E+01
 3.7377949E+01  3.7705482E+01
 3.7399487E+01  3.7661995E+01
 3.7421024E+01  3.7636261E+01
 3.7442562E+01  3.7724403E+01
 3.7464100E+01  3.7754616E+01
 3.7485634E+01  3.7746246E+01
 3.7507172E+01  3.7792583E+01
 3.7528709E+01  3.7867828E+01
 3.7550247E+01  3.7876392E+01
 3.7571785E+01  3.7857555E+01
 3.7593323E+01  3.7844631E+01
 3.7614861E+01  3.7890106E+01
 3.7636395E+01  3.7909019E+01
 3.7657932E+01  3.7878349E+01
 3.7679470E+01  3.7943264E+01
 3.7701008E+01  3.7947109E+01
 3.7722546E+01  3.7795887E+01
 3.7744083E+01  3.7833622E+01
 3.7765621E+01  3.7872578E+01
 3.7787159E+01  3.7851673E+01
 3.7808693E+01  3.7791904E+01
 3.7830231E+01  3.7888073E+01
 3.7851768E+01  3.7895664E+01
 3.7873306E+01  3.7844582E+01
 3.7894844E+01  3.7931946E+01
 3.7916382E+01  3.7961388E+01
 3.7937920E+01  3.7882923E+01
 3.7959454E+01  3.7809261E+01
 3.7980991E+01  3.7890530E+01
 3.8002529E+01  3.7799316E+01
 3.8024067E+01  3.7637806E+01
 3.8045605E+01  3.7667259E+01
 3.8067142E+01  3.7635181E+01
 3.8088680E+01  3.7304897E+01
 3.8110218E+01  3.7484123E+01
 3.8131752E+01  3.7488922E+01
 3.8153290E+01  3.7510368E+01
 3.8174828E+01  3.7550510E+01
 3.8196365E+01  3.7517483E+01
 3.8217903E+01  3.7570328E+01
 3.8239441E+01  3.7637733E+01
 3.8260979E+01  3.7724548E+01
 3.8282516E+01  3.7815517E+01
 3.8304050E+01  3.7879951E+01
 3.8325588E+01  3.7972595E+01
 3.8347126E+01  3.7889488E+01
 3.8368664E+01  3.7838921E+01
 3.8390202E+01  3.7803745E+01
 3.8411739E+01  3.7910957E+01
 3.8433277E+01  3.7896652E+01
 3.8454811E+01  3.7953491E+01
 3.8476349E+01  3.8008831E+01
 3.8497887E+01  3.8153679E+01
 3.8519424E+01  3.8191246E+01
 3.8540962E+01  3.8206871E+01
 3.8562500E+01  3.7994534E+01
 3.8584038E+01  3.7950787E+01
 3.8605576E+01  3.7982632E+01
 3.8627110E+01  3.7999310E+01
 3.8648647E+01  3.8041504E+01
 3.8670185E+01  3.8105656E+01
 3.8691723E+01  3.8143162E+01
 3.8713261E+01  3.8096600E+01
 3.8734798E+01  3.8215813E+01
 3.8756336E+01  3.8409767E+01
 3.8777874E+01  3.8445602E+01
 3.8799408E+01  3.8413754E+01
 3.8820946E+01  3.8344028E+01
 3.8842484E+01  3.8265965E+01
 3.8864021E+01  3.8220482E+01
 3.8885559E+01  3.8213650E+01
 3.8907097E+01  3.8283382E+01
 3.8928635E+01  3.8347012E+01
 3.8950169E+01  3.8354904E+01
 3.8971706E+01  3.8372936E+01
 3.8993244E+01  3.8204857E+01
 3.9014782E+01  3.8161236E+01
 3.9036320E+01  3.8204811E+01
 3.9057858E+01  3.8097157E+01
 3.9079395E+01  3.8006409E+01
 3.9100933E+01  3.8011612E+01
 3.9122467E+01  3.8013023E+01
 3.9144005E+01  3.8023567E+01
 3.9165543E+01  3.8016850E+01
 3.9187080E+01  3.8080147E+01
 3.9208618E+01  3.8125118E+01
 3.9230156E+01  3.8087223E+01
 3.9251694E+01  3.8200089E+01
 3.9273228E+01  3.8237701E+01
 3.9294765E+01  3.8237206E+01
 3.9316303E+01  3.8232491E+01
 3.9337841E+01  3.8352219E+01
 3.9359379E+01  3.8452774E+01
 3.9380917E+01  3.8467384E+01
 3.9402454E+01  3.8390312E+01
 3.9423992E+01  3.8283859E+01
 3.9445526E+01  3.8272915E+01
 3.9467064E+01  3.8292667E+01
 3.9488602E+01  3.8288021E+01
 3.9510139E+01  3.8340935E+01
 3.9531677E+01  3.8379452E+01
 3.9553215E+01  3.8305561E+01
 3.9574753E+01  3.8316288E+01
 3.9596291E+01  3.8345005E+01
 3.9617825E+01  3.8330666E+01
 3.9639362E+01  3.8388973E+01
 3.9660900E+01  3.8456791E+01
 3.9682438E+01  3.8409523E+01
 3.9703976E+01  3.8551632E+01
 3.9725513E+01  3.8498226E+01
 3.9747051E+01  3.8467247E+01
 3.9768585E+01  3.8360413E+01
 3.9790123E+01  3.8370113E+01
 3.9811661E+01  3.8402786E+01
 3.9833199E+01  3.8379879E+01
 3.9854736E+01  3.8401787E+01
 3.9876274E+01  3.8357674E+01
 3.9897812E+01  3.8392059E+01
 3.9919350E+01  3.8395954E+01
 3.9940884E+01  3.8457161E+01
 3.9962421E+01  3.8471840E+01
 3.9983959E+01  3.8543320E+01
 4.0005497E+01  3.8559273E+01
 4.0027035E+01  3.8729298E+01
 4.0048573E+01  3.8747818E+01
 4.0070110E+01  3.8751667E+01
 4.0091644E+01  3.8910820E+01
 4.0113182E+01  3.9025341E+01
 4.0134720E+01  3.8983009E+01
 4.0156258E+01  3.9025959E+01
 4.0177795E+01  3.9040440E+01
 4.0199333E+01  3.9032547E+01
 4.0220871E+01  3.8971954E+01
 4.0242409E+01  3.8807732E+01
 4.0263943E+01  3.8744473E+01
 4.0285480E+01  3.8688808E+01
 4.0307018E+01  3.8730812E+01
 4.0328556E+01  3.8861160E+01
 4.0350094E+01  3.8766689E+01
 4.0371632E+01  3.8681576E+01
 4.0393169E+01  3.8687866E+01
 4.0414707E+01  3.8706661E+01
 4.0436241E+01  3.8595467E+01
 4.0457779E+01  3.8622036E+01
 4.0479317E+01  3.8830448E+01
 4.0500854E+01  3.9044338E+01
 4.0522392E+01  3.9077274E+01
 4.0543930E+01  3.9259777E+01
 4.0565468E+01  3.9729877E+01
 4.0587002E+01  4.0236221E+01
 4.0608540E+01  4.0090416E+01
 4.0630077E+01  3.9651215E+01
 4.0651615E+01  3.9307987E+01
 4.0673153E+01  3.9210072E+01
 4.0694691E+01  3.9242069E+01
 4.0716228E+01  3.9321602E+01
 4.0737766E+01  3.9218895E+01
 4.0759300E+01  3.9084740E+01
 4.0780838E+01  3.9105095E+01
 4.0802376E+01  3.9078449E+01
 4.0823914E+01  3.9096268E+01
 4.0845451E+01  3.9041737E+01
 4.0866989E+01  3.9104088E+01
 4.0888527E+01  3.9157143E+01
 4.0910065E+01  3.9284611E+01
 4.0931599E+01  3.9210945E+01
 4.0953136E+01  3.9391109E+01
 4.0974674E+01  3.9617546E+01
 4.0996212E+01  3.9618729E+01
 4.1017750E+01  3.9743732E+01
 4.1039288E+01  3.9537857E+01
 4.1060825E+01  3.9398495E+01
 4.1082359E+01  3.9489529E+01
 4.1103897E+01  3.9356384E+01
 4.1125435E+01  3.9406017E+01
 4.1146973E+01  3.9461151E+01
 4.1168510E+01  3.9452152E+01
 4.1190048E+01  3.9549122E+01
 4.1211586E+01  3.9684456E+01
 4.1233124E+01  3.9630394E+01
 4.1254658E+01  3.9516777E+01
 4.1276196E+01  3.9482723E+01
 4.1297733E+01  3.9380039E+01
 4.1319271E+01  3.9547852E+01
 4.1340809E+01  3.9570122E+01
 4.1362347E+01  3.9598400E+01
 4.1383884E+01  3.9761238E+01
 4.1405418E+01  3.9765469E+01
 4.1426956E+01  3.9751503E+01
 4.1448494E+01  3.9854362E+01
 4.1470032E+01  3.9804531E+01
 4.1491570E+01  3.9731918E+01
 4.1513107E+01  3.9704670E+01
 4.1534645E+01  3.9591015E+01
 4.1556183E+01  3.9565884E+01
 4.1577717E+01  3.9598839E+01
 4.1599255E+01  3.9601570E+01
 4.1620792E+01  3.9579338E+01
 4.1642330E+01  3.9545803E+01
 4.1663868E+01  3.9520660E+01
 4.1685406E+01  3.9656513E+01
 4.1706944E+01  3.9778999E+01
 4.1728481E+01  3.9694088E+01
 4.1750015E+01  3.9559631E+01
 4.1771553E+01  3.9613247E+01
 4.1793091E+01  3.9688488E+01
 4.1814629E+01  3.9752018E+01
 4.1836166E+01  3.9762650E+01
 4.1857704E+01  3.9972179E+01
 4.1879242E+01  4.0583439E+01
 4.1900776E+01  4.0891109E+01
 4.1922314E+01  4.0604584E+01
 4.1943851E+01  4.0486073E+01
 4.1965389E+01  4.0371151E+01
 4.1986927E+01  4.0346073E+01
 4.2008465E+01  4.0135078E+01
 4.2030003E+01  4.0118603E+01
 4.2051540E+01  3.9958206E+01
 4.2073074E+01  3.9820507E+01
 4.2094612E+01  3.9690529E+01
 4.2116150E+01  3.9774593E+01
 4.2137688E+01  3.9773655E+01
 4.2159225E+01  3.9703140E+01
 4.2180763E+01  3.9746208E+01
 4.2202301E+01  3.9680225E+01
 4.2223835E+01  3.9637112E+01
 4.2245373E+01  3.9762657E+01
 4.2266911E+01  3.9737869E+01
 4.2288448E+01  3.9827175E+01
 4.2309986E+01  3.9859390E+01
 4.2331524E+01  4.0076317E+01
 4.2353062E+01  4.0282307E+01
 4.2374599E+01  4.0439114E+01
 4.2396133E+01  4.0671211E+01
 4.2417671E+01  4.0917343E+01
 4.2439209E+01  4.0871170E+01
 4.2460747E+01  4.0920338E+01
 4.2482285E+01  4.0758316E+01
 4.2503822E+01  4.0777775E+01
 4.2525360E+01  4.0727348E+01
 4.2546898E+01  4.0654308E+01
 4.2568432E+01  4.0453632E+01
 4.2589970E+01  4.0233669E+01
 4.2611507E+01  4.0319927E+01
 4.2633045E+01  4.0215519E+01
 4.2654583E+01  4.0200478E+01
 4.2676121E+01  4.0277809E+01
 4.2697659E+01  4.0234035E+01
 4.2719193E+01  4.0150177E+01
 4.2740730E+01  4.0263783E+01
 4.2762268E+01  4.0197056E+01
 4.2783806E+01  4.0261040E+01
 4.2805344E+01  4.0090096E+01
 4.2826881E+01  4.0170708E+01
 4.2848419E+01  4.0247425E+01
 4.2869957E+01  4.0258881E+01
 4.2891491E+01  4.0305210E+01
 4.2913029E+01  4.0456234E+01
 4.2934566E+01  4.0350163E+01
 4.2956104E+01  4.0406475E+01
 4.2977642E+01  4.0362019E+01
 4.2999180E+01  4.0375023E+01
 4.3020718E+01  4.0566219E+01
 4.3042255E+01  4.0561840E+01
 4.3063789E+01  4.0444191E+01
 4.3085327E+01  4.0601288E+01
 4.3106865E+01  4.0617493E+01
 4.3128403E+01  4.0509853E+01
 4.3149940E+01  4.0465622E+01
 4.3171478E+01  4.0511559E+01
 4.3193016E+01  4.0616627E+01
 4.3214550E+01  4.0699780E+01
 4.3236088E+01  4.0793964E+01
 4.3257626E+01  4.0921627E+01
 4.3279163E+01  4.0800415E+01
 4.3300701E+01  4.1024036E+01
 4.3322239E+01  4.0918079E+01
 4.3343777E+01  4.1145168E+01
 4.3365314E+01  4.1234562E+01
 4.3386848E+01  4.1092468E+01
 4.3408386E+01  4.1138199E+01
 4.3429924E+01  4.1133480E+01
 4.3451462E+01  4.0934795E+01
 4.3473000E+01  4.0908554E+01
 4.3494537E+01  4.1046551E+01
 4.3516075E+01  4.0996037E+01
 4.3537609E+01  4.0928539E+01
 4.3559147E+01  4.0938702E+01
 4.3580685E+01  4.0910172E+01
 4.3602222E+01  4.0898098E+01
 4.3623760E+01  4.1315998E+01
 4.3645298E+01  4.1191082E+01
 4.3666836E+01  4.1129894E+01
 4.3688374E+01  4.1459034E+01
 4.3709908E+01  4.1428814E+01
 4.3731445E+01  4.1179886E+01
 4.3752983E+01  4.1282566E+01
 4.3774521E+01  4.1426739E+01
 4.3796059E+01  4.1548542E+01
 4.3817596E+01  4.1689362E+01
 4.3839134E+01  4.1685902E+01
 4.3860672E+01  4.1594353E+01
 4.3882206E+01  4.1693737E+01
 4.3903744E+01  4.1858372E+01
 4.3925282E+01  4.1984459E+01
 4.3946819E+01  4.1664444E+01
 4.3968357E+01  4.1726128E+01
 4.3989895E+01  4.1900127E+01
 4.4011433E+01  4.2124538E+01
 4.4032967E+01  4.2017738E+01
 4.4054504E+01  4.1771416E+01
 4.4076042E+01  4.1482231E+01
 4.4097580E+01  4.1749367E+01
 4.4119118E+01  4.2154831E+01
 4.4140656E+01  4.1982460E+01
 4.4162193E+01  4.1658588E+01
 4.4183731E+01  4.1871876E+01
 4.4205265E+01  4.2072498E+01
 4.4226803E+01  4.1900311E+01
 4.4248341E+01  4.1872528E+01
 4.4269878E+01  4.1921055E+01
 4.4291416E+01  4.1993595E+01
 4.4312954E+01  4.2090496E+01
 4.4334492E+01  4.2160706E+01
 4.4356026E+01  4.2367176E+01
 4.4377563E+01  4.2259937E+01
 4.4399101E+01  4.1998550E+01
 4.4420639E+01  4.2069481E+01
 4.4442177E+01  4.2458839E+01
 4.4463715E+01  4.2423759E+01
 4.4485252E+01  4.2544579E+01
 4.4506790E+01  4.2620243E+01
 4.4528324E+01  4.2563961E+01
 4.4549862E+01  4.2432426E+01
 4.4571400E+01  4.2491432E+01
 4.4592937E+01  4.2833073E+01
 4.4614475E+01  4.2865273E+01
 4.4636013E+01  4.2489319E+01
 4.4657551E+01  4.2535587E+01
 4.4679089E+01  4.2712765E+01
 4.4700623E+01  4.2636917E+01
 4.4722160E+01  4.2845821E+01
 4.4743698E+01  4.2816818E+01
 4.4765236E+01  4.2802967E+01
 4.4786774E+01  4.2732315E+01
 4.4808311E+01  4.2472569E+01
 4.4829849E+01  4.2971420E+01
 4.4851383E+01  4.3124172E+01
 4.4872921E+01  4.2843204E+01
 4.4894459E+01  4.2902649E+01
 4.4915997E+01  4.3204128E+01
 4.4937534E+01  4.2762566E+01
 4.4959072E+01  4.2889954E+01
 4.4980610E+01  4.2979794E+01
 4.5002148E+01  4.3042625E+01
 4.5023682E+01  4.3053459E+01
 4.5045219E+01  4.2955894E+01
 4.5066757E+01  4.2899574E+01
 4.5088295E+01  4.3349545E+01
 4.5109833E+01  4.3242973E+01
 4.5131371E+01  4.3225292E+01
 4.5152908E+01  4.2935184E+01
 4.5174442E+01  4.3050705E+01
 4.5195980E+01  4.3098373E+01
 4.5217518E+01  4.3428715E+01
 4.5239056E+01  4.3461391E+01
 4.5260593E+01  4.3105988E+01
 4.5282131E+01  4.3492931E+01
 4.5303669E+01  4.3183010E+01
 4.5325207E+01  4.3459663E+01
 4.5346741E+01  4.3457821E+01
 4.5368279E+01  4.3512276E+01
 4.5389816E+01  4.4009781E+01
 4.5411354E+01  4.3961086E+01
 4.5432892E+01  4.3847858E+01
 4.5454430E+01  4.3916615E+01
 4.5475967E+01  4.3616409E+01
 4.5497505E+01  4.3779613E+01
 4.5519039E+01  4.3879383E+01
 4.5540577E+01  4.4013554E+01
 4.5562115E+01  4.3522732E+01
 4.5583652E+01  4.3536900E+01
 4.5605190E+01  4.3625263E+01
 4.5626728E+01  4.3593811E+01
 4.5648266E+01  4.3757023E+01
 4.5669800E+01  4.3897144E+01
 4.5691338E+01  4.4073441E+01
 4.5712875E+01  4.4118973E+01
 4.5734413E+01  4.3681263E+01
 4.5755951E+01  4.3647091E+01
 4.5777489E+01  4.3924088E+01
 4.5799026E+01  4.3640892E+01
 4.5820564E+01  4.3556938E+01
 4.5842098E+01  4.3962013E+01
 4.5863636E+01  4.4176937E+01
 4.5885174E+01  4.3933853E+01
 4.5906712E+01  4.3582233E+01
 4.5928249E+01  4.3593857E+01
 4.5949787E+01  4.3554798E+01
 4.5971325E+01  4.3893150E+01
 4.5992863E+01  4.3897457E+01
 4.6014397E+01  4.4463406E+01
 4.6035934E+01  4.4725895E+01
 4.6057472E+01  4.4542610E+01
 4.6079010E+01  4.4379551E+01
 4.6100548E+01  4.4023788E+01
 4.6122086E+01  4.3762127E+01
 4.6143623E+01  4.4309399E+01
 4.6165157E+01  4.4445976E+01
 4.6186695E+01  4.4821278E+01
 4.6208233E+01  4.4639423E+01
 4.6229771E+01  4.4202854E+01
 4.6251308E+01  4.4334309E+01
 4.6272846E+01  4.4541866E+01
 4.6294384E+01  4.4706364E+01
 4.6315922E+01  4.4343800E+01
 4.6337456E+01  4.4706989E+01
 4.6358994E+01  4.4368423E+01
 4.6380531E+01  4.4649364E+01
 4.6402069E+01  4.4622135E+01
 4.6423607E+01  4.4831604E+01
 4.6445145E+01  4.4837910E+01
 4.6466682E+01  4.5247211E+01
 4.6488216E+01  4.4752243E+01
 4.6509754E+01  4.5062309E+01
 4.6531292E+01  4.4592403E+01
 4.6552830E+01  4.5228115E+01
 4.6574368E+01  4.5131554E+01
 4.6595905E+01  4.4842117E+01
 4.6617443E+01  4.4580029E+01
 4.6638981E+01  4.4410488E+01
 4.6660515E+01  4.5033180E+01
 4.6682053E+01  4.4984776E+01
 4.6703590E+01  4.4628719E+01
 4.6725128E+01  4.4684677E+01
 4.6746666E+01  4.5611351E+01
 4.6768204E+01  4.5130745E+01
 4.6789742E+01  4.4618355E+01
 4.6811279E+01  4.5938789E+01
 4.6832813E+01  4.5861183E+01
 4.6854351E+01  4.5516273E+01
 4.6875889E+01  4.6004742E+01
 4.6897427E+01  4.5500755E+01
 4.6918964E+01  4.4219608E+01
 4.6940502E+01  4.5078587E+01
 4.6962040E+01  4.5538132E+01
 4.6983574E+01  4.4964500E+01
 4.7005112E+01  4.4874542E+01
 4.7026649E+01  4.4855278E+01
 4.7048187E+01  4.5356487E+01
 4.7069725E+01  4.5388126E+01
 4.7091263E+01  4.5241943E+01
 4.7112801E+01  4.4601589E+01
 4.7134338E+01  4.5972191E+01
 4.7155872E+01  4.5553013E+01
 4.7177410E+01  4.6293751E+01
 4.7198948E+01  4.5171757E+01
 4.7220486E+01  4.6347485E+01
 4.7242023E+01  4.6043667E+01
 4.7263561E+01  4.5518356E+01
 4.7285099E+01  4.4698387E+01
 4.7306633E+01  4.4863506E+01
 4.7328171E+01  4.5657532E+01
 4.7349709E+01  4.6489994E+01
 4.7371246E+01  4.7411598E+01
 4.7392784E+01  4.7948658E+01
 4.7414322E+01  4.7886749E+01
 4.7435860E+01  4.7840092E+01
 4.7457397E+01  4.7686302E+01
 4.7478931E+01  4.7390812E+01
 4.7500469E+01  4.5609276E+01
 4.7522007E+01  4.4368988E+01
 4.7543545E+01  4.5041214E+01
 4.7565083E+01  4.5303791E+01
 4.7586620E+01  4.6251713E+01
 4.7608158E+01  4.7943890E+01
 4.7629696E+01  4.7574837E+01
 4.7651230E+01  4.5343330E+01
 4.7672768E+01  4.3919003E+01
 4.7694305E+01  4.2140835E+01
 4.7715843E+01  4.1104301E+01
 4.7737381E+01  4.1092648E+01
 4.7758919E+01  3.8107029E+01
 4.7780457E+01  3.5783520E+01
 4.7801991E+01  3.5599682E+01
 4.7823528E+01  4.1361610E+01
 4.7845066E+01  3.2252369E+01
 4.7866604E+01  3.3296280E+01
 4.7888142E+01  3.6597549E+01
 4.7909679E+01  0.0000000E+00
 4.7931217E+01  0.0000000E+00
 4.7952755E+01  0.0000000E+00
 4.7974289E+01  0.0000000E+00
 4.7995827E+01  0.0000000E+00
 4.8017365E+01  0.0000000E+00
