S:\2014_06\marccd\Jun14_01036.mccd: Q-Space Scan
Q (Inverse Nanometres)
Intensity
       2191
 9.5692640E-03  0.0000000E+00
 2.8707791E-02  0.0000000E+00
 4.7846321E-02  0.0000000E+00
 6.6984847E-02  0.0000000E+00
 8.6123377E-02  0.0000000E+00
 1.0526191E-01  0.0000000E+00
 1.2440043E-01  0.0000000E+00
 1.4353897E-01  0.0000000E+00
 1.6267748E-01  0.0000000E+00
 1.8181601E-01  0.0000000E+00
 2.0095454E-01  0.0000000E+00
 2.2009307E-01  0.0000000E+00
 2.3923160E-01  0.0000000E+00
 2.5837013E-01  0.0000000E+00
 2.7750865E-01  0.0000000E+00
 2.9664719E-01  0.0000000E+00
 3.1578571E-01  0.0000000E+00
 3.3492425E-01  0.0000000E+00
 3.5406277E-01  0.0000000E+00
 3.7320131E-01  0.0000000E+00
 3.9233983E-01  0.0000000E+00
 4.1147834E-01  0.0000000E+00
 4.3061689E-01  0.0000000E+00
 4.4975540E-01  0.0000000E+00
 4.6889395E-01  0.0000000E+00
 4.8803246E-01  0.0000000E+00
 5.0717098E-01  0.0000000E+00
 5.2630955E-01  0.0000000E+00
 5.4544806E-01  0.0000000E+00
 5.6458658E-01  0.0000000E+00
 5.8372509E-01  0.0000000E+00
 6.0286361E-01  0.0000000E+00
 6.2200218E-01  0.0000000E+00
 6.4114070E-01  0.0000000E+00
 6.6027921E-01  0.0000000E+00
 6.7941773E-01  0.0000000E+00
 6.9855624E-01  0.0000000E+00
 7.1769482E-01  0.0000000E+00
 7.3683333E-01  0.0000000E+00
 7.5597185E-01  0.0000000E+00
 7.7511036E-01  0.0000000E+00
 7.9424894E-01  0.0000000E+00
 8.1338745E-01  0.0000000E+00
 8.3252597E-01  0.0000000E+00
 8.5166448E-01  0.0000000E+00
 8.7080300E-01  0.0000000E+00
 8.8994157E-01  0.0000000E+00
 9.0908009E-01  0.0000000E+00
 9.2821860E-01  0.0000000E+00
 9.4735712E-01  0.0000000E+00
 9.6649569E-01  0.0000000E+00
 9.8563421E-01  0.0000000E+00
 1.0047727E+00  0.0000000E+00
 1.0239112E+00  0.0000000E+00
 1.0430498E+00  0.0000000E+00
 1.0621883E+00  0.0000000E+00
 1.0813268E+00  0.0000000E+00
 1.1004654E+00  0.0000000E+00
 1.1196039E+00  0.0000000E+00
 1.1387424E+00  0.0000000E+00
 1.1578809E+00  0.0000000E+00
 1.1770195E+00  0.0000000E+00
 1.1961581E+00  0.0000000E+00
 1.2152965E+00  0.0000000E+00
 1.2344351E+00  0.0000000E+00
 1.2535735E+00  0.0000000E+00
 1.2727121E+00  0.0000000E+00
 1.2918507E+00  0.0000000E+00
 1.3109891E+00  0.0000000E+00
 1.3301277E+00  0.0000000E+00
 1.3492662E+00  0.0000000E+00
 1.3684047E+00  0.0000000E+00
 1.3875433E+00  0.0000000E+00
 1.4066818E+00  0.0000000E+00
 1.4258204E+00  0.0000000E+00
 1.4449589E+00  0.0000000E+00
 1.4640974E+00  1.6156561E+02
 1.4832360E+00  1.6756943E+02
 1.5023744E+00  1.6553467E+02
 1.5215130E+00  1.5878596E+02
 1.5406516E+00  1.5328526E+02
 1.5597900E+00  1.4696677E+02
 1.5789286E+00  1.4169348E+02
 1.5980670E+00  1.3678064E+02
 1.6172056E+00  1.3210297E+02
 1.6363442E+00  1.2805070E+02
 1.6554826E+00  1.2424548E+02
 1.6746212E+00  1.2076677E+02
 1.6937597E+00  1.1773613E+02
 1.7128983E+00  1.1458884E+02
 1.7320368E+00  1.1085691E+02
 1.7511753E+00  1.0698599E+02
 1.7703139E+00  1.0409200E+02
 1.7894523E+00  1.0168169E+02
 1.8085909E+00  9.9106125E+01
 1.8277295E+00  9.6698639E+01
 1.8468679E+00  9.4334412E+01
 1.8660065E+00  9.2310150E+01
 1.8851451E+00  8.9965096E+01
 1.9042835E+00  8.7725327E+01
 1.9234221E+00  8.5668846E+01
 1.9425606E+00  8.4013306E+01
 1.9616991E+00  8.2436417E+01
 1.9808377E+00  8.0767693E+01
 1.9999762E+00  7.9067581E+01
 2.0191147E+00  7.7626419E+01
 2.0382533E+00  7.6250626E+01
 2.0573919E+00  7.4877396E+01
 2.0765302E+00  7.3416916E+01
 2.0956688E+00  7.2173523E+01
 2.1148074E+00  7.1336876E+01
 2.1339459E+00  7.0186111E+01
 2.1530845E+00  6.8865128E+01
 2.1722229E+00  6.7590538E+01
 2.1913614E+00  6.6522415E+01
 2.2105000E+00  6.5604012E+01
 2.2296386E+00  6.4576012E+01
 2.2487772E+00  6.3717030E+01
 2.2679155E+00  6.3012390E+01
 2.2870541E+00  6.2037548E+01
 2.3061926E+00  6.1573154E+01
 2.3253312E+00  6.0934345E+01
 2.3444698E+00  6.0135548E+01
 2.3636081E+00  5.9439262E+01
 2.3827467E+00  5.8800419E+01
 2.4018853E+00  5.7943474E+01
 2.4210238E+00  5.7216553E+01
 2.4401624E+00  5.6543785E+01
 2.4593008E+00  5.6190159E+01
 2.4784393E+00  5.5654987E+01
 2.4975779E+00  5.4843327E+01
 2.5167165E+00  5.4231339E+01
 2.5358551E+00  5.3871609E+01
 2.5549934E+00  5.3415787E+01
 2.5741320E+00  5.3019897E+01
 2.5932705E+00  5.2441723E+01
 2.6124091E+00  5.2194614E+01
 2.6315477E+00  5.1795914E+01
 2.6506860E+00  5.1395168E+01
 2.6698246E+00  5.1037819E+01
 2.6889632E+00  5.0749123E+01
 2.7081017E+00  5.0368488E+01
 2.7272403E+00  4.9965370E+01
 2.7463787E+00  4.9675377E+01
 2.7655172E+00  4.9381954E+01
 2.7846558E+00  4.9158279E+01
 2.8037944E+00  4.8833950E+01
 2.8229330E+00  4.8487446E+01
 2.8420713E+00  4.8308693E+01
 2.8612099E+00  4.8139103E+01
 2.8803484E+00  4.7899128E+01
 2.8994870E+00  4.7390701E+01
 2.9186256E+00  4.6971546E+01
 2.9377642E+00  4.6831749E+01
 2.9569025E+00  4.6613663E+01
 2.9760411E+00  4.6435703E+01
 2.9951797E+00  4.6294708E+01
 3.0143182E+00  4.6112656E+01
 3.0334568E+00  4.5957924E+01
 3.0525951E+00  4.5858295E+01
 3.0717337E+00  4.5679268E+01
 3.0908723E+00  4.5347862E+01
 3.1100109E+00  4.5028412E+01
 3.1291494E+00  4.5097694E+01
 3.1482878E+00  4.4757496E+01
 3.1674263E+00  4.4278103E+01
 3.1865649E+00  4.4225704E+01
 3.2057035E+00  4.4092434E+01
 3.2248421E+00  4.3871975E+01
 3.2439804E+00  4.3785583E+01
 3.2631190E+00  4.3641369E+01
 3.2822576E+00  4.3514809E+01
 3.3013961E+00  4.3375713E+01
 3.3205347E+00  4.3247002E+01
 3.3396730E+00  4.3209023E+01
 3.3588116E+00  4.3165653E+01
 3.3779502E+00  4.3129829E+01
 3.3970888E+00  4.2931629E+01
 3.4162273E+00  4.2780033E+01
 3.4353657E+00  4.2770859E+01
 3.4545043E+00  4.2520794E+01
 3.4736428E+00  4.2157471E+01
 3.4927814E+00  4.2186760E+01
 3.5119200E+00  4.2320335E+01
 3.5310583E+00  4.2131920E+01
 3.5501969E+00  4.1968369E+01
 3.5693355E+00  4.2112297E+01
 3.5884740E+00  4.1983517E+01
 3.6076126E+00  4.1913128E+01
 3.6267509E+00  4.1862808E+01
 3.6458895E+00  4.1719639E+01
 3.6650281E+00  4.1516426E+01
 3.6841667E+00  4.1433903E+01
 3.7033052E+00  4.1547680E+01
 3.7224438E+00  4.1524445E+01
 3.7415822E+00  4.1327168E+01
 3.7607207E+00  4.1331089E+01
 3.7798593E+00  4.1295231E+01
 3.7989979E+00  4.1191631E+01
 3.8181365E+00  4.1198845E+01
 3.8372748E+00  4.1095852E+01
 3.8564134E+00  4.0986706E+01
 3.8755519E+00  4.0888096E+01
 3.8946905E+00  4.0824871E+01
 3.9138291E+00  4.0765896E+01
 3.9329674E+00  4.0711060E+01
 3.9521060E+00  4.0708427E+01
 3.9712446E+00  4.0737576E+01
 3.9903831E+00  4.0557701E+01
 4.0095215E+00  4.0359661E+01
 4.0286603E+00  4.0374638E+01
 4.0477986E+00  4.0418541E+01
 4.0669370E+00  4.0515026E+01
 4.0860758E+00  4.0550705E+01
 4.1052141E+00  4.0476192E+01
 4.1243529E+00  4.0349800E+01
 4.1434913E+00  4.0319645E+01
 4.1626301E+00  4.0345707E+01
 4.1817684E+00  4.0279629E+01
 4.2009068E+00  4.0243275E+01
 4.2200456E+00  4.0339314E+01
 4.2391839E+00  4.0536911E+01
 4.2583227E+00  4.0497791E+01
 4.2774611E+00  4.0449558E+01
 4.2965994E+00  4.0244503E+01
 4.3157382E+00  4.0110878E+01
 4.3348765E+00  4.0134880E+01
 4.3540154E+00  4.0157318E+01
 4.3731537E+00  4.0117428E+01
 4.3922920E+00  4.0052662E+01
 4.4114308E+00  4.0041348E+01
 4.4305692E+00  4.0070087E+01
 4.4497080E+00  4.0218674E+01
 4.4688463E+00  4.0281368E+01
 4.4879847E+00  4.0325832E+01
 4.5071235E+00  4.0476044E+01
 4.5262618E+00  4.0354996E+01
 4.5454006E+00  4.0390514E+01
 4.5645390E+00  4.0529060E+01
 4.5836773E+00  4.0520779E+01
 4.6028161E+00  4.0609917E+01
 4.6219544E+00  4.0556465E+01
 4.6410933E+00  4.0527870E+01
 4.6602316E+00  4.0618584E+01
 4.6793699E+00  4.0507420E+01
 4.6985087E+00  4.0505901E+01
 4.7176471E+00  4.0628910E+01
 4.7367859E+00  4.0609249E+01
 4.7559242E+00  4.0605644E+01
 4.7750626E+00  4.0683285E+01
 4.7942014E+00  4.0684288E+01
 4.8133397E+00  4.0710579E+01
 4.8324785E+00  4.0875973E+01
 4.8516169E+00  4.0933304E+01
 4.8707552E+00  4.0888653E+01
 4.8898940E+00  4.1013557E+01
 4.9090323E+00  4.1142754E+01
 4.9281712E+00  4.1110661E+01
 4.9473095E+00  4.1097645E+01
 4.9664478E+00  4.0996311E+01
 4.9855866E+00  4.1017246E+01
 5.0047250E+00  4.1114315E+01
 5.0238638E+00  4.1251003E+01
 5.0430021E+00  4.1350533E+01
 5.0621405E+00  4.1371643E+01
 5.0812793E+00  4.1388206E+01
 5.1004176E+00  4.1387863E+01
 5.1195564E+00  4.1306526E+01
 5.1386948E+00  4.1350086E+01
 5.1578331E+00  4.1529587E+01
 5.1769719E+00  4.1759098E+01
 5.1961102E+00  4.2036575E+01
 5.2152491E+00  4.2186508E+01
 5.2343874E+00  4.2147896E+01
 5.2535257E+00  4.2103600E+01
 5.2726645E+00  4.2232300E+01
 5.2918029E+00  4.2387974E+01
 5.3109417E+00  4.2491341E+01
 5.3300800E+00  4.2584629E+01
 5.3492184E+00  4.2634163E+01
 5.3683572E+00  4.2715126E+01
 5.3874955E+00  4.2813602E+01
 5.4066343E+00  4.2842438E+01
 5.4257727E+00  4.2830444E+01
 5.4449110E+00  4.2964596E+01
 5.4640498E+00  4.3139023E+01
 5.4831882E+00  4.3333931E+01
 5.5023270E+00  4.3536629E+01
 5.5214653E+00  4.3661880E+01
 5.5406036E+00  4.3706219E+01
 5.5597425E+00  4.3838997E+01
 5.5788808E+00  4.3906105E+01
 5.5980196E+00  4.3915890E+01
 5.6171579E+00  4.3978584E+01
 5.6362963E+00  4.4066540E+01
 5.6554351E+00  4.4112438E+01
 5.6745734E+00  4.4293739E+01
 5.6937122E+00  4.4565022E+01
 5.7128506E+00  4.4683075E+01
 5.7319894E+00  4.4705879E+01
 5.7511277E+00  4.4798363E+01
 5.7702661E+00  4.5038807E+01
 5.7894049E+00  4.5120255E+01
 5.8085432E+00  4.5113503E+01
 5.8276820E+00  4.5252079E+01
 5.8468204E+00  4.5413696E+01
 5.8659587E+00  4.5575413E+01
 5.8850975E+00  4.5749134E+01
 5.9042358E+00  4.5828773E+01
 5.9233747E+00  4.5937943E+01
 5.9425130E+00  4.6173950E+01
 5.9616513E+00  4.6331787E+01
 5.9807901E+00  4.6422428E+01
 5.9999285E+00  4.6525055E+01
 6.0190673E+00  4.6624332E+01
 6.0382056E+00  4.6652786E+01
 6.0573440E+00  4.6754894E+01
 6.0764828E+00  4.6867229E+01
 6.0956211E+00  4.7029758E+01
 6.1147599E+00  4.7218708E+01
 6.1338983E+00  4.7422913E+01
 6.1530366E+00  4.7569828E+01
 6.1721754E+00  4.7712391E+01
 6.1913137E+00  4.7838169E+01
 6.2104526E+00  4.7991322E+01
 6.2295909E+00  4.8069298E+01
 6.2487292E+00  4.8226639E+01
 6.2678680E+00  4.8390049E+01
 6.2870064E+00  4.8586815E+01
 6.3061452E+00  4.8746120E+01
 6.3252835E+00  4.8794567E+01
 6.3444219E+00  4.9006405E+01
 6.3635607E+00  4.9327564E+01
 6.3826990E+00  4.9754566E+01
 6.4018378E+00  5.0025185E+01
 6.4209762E+00  5.0167763E+01
 6.4401145E+00  5.0401016E+01
 6.4592533E+00  5.0782421E+01
 6.4783916E+00  5.1111736E+01
 6.4975305E+00  5.1170174E+01
 6.5166688E+00  5.1139778E+01
 6.5358071E+00  5.1123032E+01
 6.5549459E+00  5.1212791E+01
 6.5740843E+00  5.1324486E+01
 6.5932231E+00  5.1290138E+01
 6.6123614E+00  5.1351761E+01
 6.6314998E+00  5.1542042E+01
 6.6506386E+00  5.1627411E+01
 6.6697769E+00  5.1782436E+01
 6.6889157E+00  5.1917446E+01
 6.7080541E+00  5.1982918E+01
 6.7271924E+00  5.2166126E+01
 6.7463312E+00  5.2448185E+01
 6.7654696E+00  5.2620804E+01
 6.7846084E+00  5.2644043E+01
 6.8037467E+00  5.2841343E+01
 6.8228850E+00  5.3091072E+01
 6.8420238E+00  5.3335262E+01
 6.8611622E+00  5.3659275E+01
 6.8803010E+00  5.3888672E+01
 6.8994393E+00  5.4179401E+01
 6.9185777E+00  5.4378349E+01
 6.9377165E+00  5.4590897E+01
 6.9568548E+00  5.4837555E+01
 6.9759936E+00  5.5120289E+01
 6.9951320E+00  5.5369087E+01
 7.0142703E+00  5.5681377E+01
 7.0334091E+00  5.6010391E+01
 7.0525475E+00  5.6269730E+01
 7.0716863E+00  5.6512962E+01
 7.0908246E+00  5.6679783E+01
 7.1099629E+00  5.6792370E+01
 7.1291018E+00  5.7041107E+01
 7.1482401E+00  5.7281189E+01
 7.1673789E+00  5.7501820E+01
 7.1865172E+00  5.7819405E+01
 7.2056556E+00  5.8020779E+01
 7.2247944E+00  5.8290684E+01
 7.2439327E+00  5.8561783E+01
 7.2630715E+00  5.8731869E+01
 7.2822099E+00  5.8873577E+01
 7.3013482E+00  5.9074757E+01
 7.3204870E+00  5.9327690E+01
 7.3396254E+00  5.9673065E+01
 7.3587642E+00  6.0115437E+01
 7.3779025E+00  6.0448414E+01
 7.3970413E+00  6.0613796E+01
 7.4161797E+00  6.1008202E+01
 7.4353180E+00  6.1511730E+01
 7.4544568E+00  6.1824764E+01
 7.4735951E+00  6.1915352E+01
 7.4927340E+00  6.2124668E+01
 7.5118723E+00  6.2518337E+01
 7.5310106E+00  6.2840015E+01
 7.5501494E+00  6.3218987E+01
 7.5692878E+00  6.3612659E+01
 7.5884266E+00  6.3978252E+01
 7.6075649E+00  6.4227951E+01
 7.6267033E+00  6.4560150E+01
 7.6458421E+00  6.4981743E+01
 7.6649804E+00  6.5208649E+01
 7.6841192E+00  6.5451294E+01
 7.7032576E+00  6.5839203E+01
 7.7223959E+00  6.6300766E+01
 7.7415347E+00  6.6694031E+01
 7.7606730E+00  6.6965889E+01
 7.7798119E+00  6.7306305E+01
 7.7989502E+00  6.7880180E+01
 7.8180885E+00  6.8466995E+01
 7.8372273E+00  6.8863754E+01
 7.8563657E+00  6.9259956E+01
 7.8755045E+00  6.9716812E+01
 7.8946428E+00  7.0204254E+01
 7.9137812E+00  7.0796402E+01
 7.9329200E+00  7.1505760E+01
 7.9520583E+00  7.2077232E+01
 7.9711971E+00  7.2573334E+01
 7.9903355E+00  7.3123909E+01
 8.0094738E+00  7.3775490E+01
 8.0286121E+00  7.4283684E+01
 8.0477514E+00  7.4847710E+01
 8.0668898E+00  7.5427460E+01
 8.0860281E+00  7.5899170E+01
 8.1051664E+00  7.6172630E+01
 8.1243048E+00  7.6394630E+01
 8.1434441E+00  7.6817764E+01
 8.1625824E+00  7.7372177E+01
 8.1817207E+00  7.7821854E+01
 8.2008591E+00  7.8321411E+01
 8.2199974E+00  7.9033257E+01
 8.2391367E+00  8.0095886E+01
 8.2582750E+00  8.1285820E+01
 8.2774134E+00  8.2236618E+01
 8.2965517E+00  8.2543648E+01
 8.3156900E+00  8.2033340E+01
 8.3348293E+00  8.1122528E+01
 8.3539677E+00  8.0477089E+01
 8.3731060E+00  8.0291573E+01
 8.3922443E+00  8.0359924E+01
 8.4113827E+00  8.0694801E+01
 8.4305220E+00  8.0980476E+01
 8.4496603E+00  8.1305901E+01
 8.4687986E+00  8.1724602E+01
 8.4879370E+00  8.2074646E+01
 8.5070753E+00  8.2538132E+01
 8.5262146E+00  8.2998238E+01
 8.5453529E+00  8.3445465E+01
 8.5644913E+00  8.4052963E+01
 8.5836296E+00  8.4769035E+01
 8.6027679E+00  8.5459045E+01
 8.6219072E+00  8.5997124E+01
 8.6410456E+00  8.6088753E+01
 8.6601839E+00  8.5930305E+01
 8.6793222E+00  8.5949715E+01
 8.6984606E+00  8.6155228E+01
 8.7175999E+00  8.6431358E+01
 8.7367382E+00  8.6846855E+01
 8.7558765E+00  8.7102737E+01
 8.7750149E+00  8.7307373E+01
 8.7941532E+00  8.7628746E+01
 8.8132925E+00  8.7859673E+01
 8.8324308E+00  8.8102730E+01
 8.8515692E+00  8.8545952E+01
 8.8707075E+00  8.8859276E+01
 8.8898458E+00  8.9190819E+01
 8.9089851E+00  8.9529907E+01
 8.9281235E+00  8.9753510E+01
 8.9472618E+00  9.0046768E+01
 8.9664001E+00  9.0204826E+01
 8.9855385E+00  9.0314911E+01
 9.0046778E+00  9.0683228E+01
 9.0238161E+00  9.1113243E+01
 9.0429544E+00  9.1419647E+01
 9.0620928E+00  9.1696091E+01
 9.0812311E+00  9.1761131E+01
 9.1003704E+00  9.2029121E+01
 9.1195087E+00  9.2194000E+01
 9.1386471E+00  9.2396263E+01
 9.1577854E+00  9.2651253E+01
 9.1769238E+00  9.2849083E+01
 9.1960630E+00  9.3002831E+01
 9.2152014E+00  9.3100510E+01
 9.2343397E+00  9.3275505E+01
 9.2534781E+00  9.3485207E+01
 9.2726164E+00  9.3488327E+01
 9.2917557E+00  9.3506935E+01
 9.3108940E+00  9.3572266E+01
 9.3300323E+00  9.3745651E+01
 9.3491707E+00  9.3948097E+01
 9.3683090E+00  9.4062935E+01
 9.3874483E+00  9.4191856E+01
 9.4065866E+00  9.4178917E+01
 9.4257250E+00  9.4189545E+01
 9.4448633E+00  9.4108299E+01
 9.4640017E+00  9.4042892E+01
 9.4831409E+00  9.4099838E+01
 9.5022793E+00  9.4253014E+01
 9.5214176E+00  9.4286255E+01
 9.5405560E+00  9.4346092E+01
 9.5596943E+00  9.4331505E+01
 9.5788336E+00  9.4357635E+01
 9.5979719E+00  9.4314774E+01
 9.6171103E+00  9.4261757E+01
 9.6362486E+00  9.4168556E+01
 9.6553869E+00  9.4108986E+01
 9.6745262E+00  9.4135513E+01
 9.6936646E+00  9.4132820E+01
 9.7128029E+00  9.4060349E+01
 9.7319412E+00  9.3962044E+01
 9.7510796E+00  9.3790596E+01
 9.7702188E+00  9.3718056E+01
 9.7893572E+00  9.3629524E+01
 9.8084955E+00  9.3598930E+01
 9.8276339E+00  9.3557838E+01
 9.8467731E+00  9.3476830E+01
 9.8659115E+00  9.3306366E+01
 9.8850498E+00  9.3104912E+01
 9.9041882E+00  9.3046120E+01
 9.9233265E+00  9.2935211E+01
 9.9424658E+00  9.2839836E+01
 9.9616041E+00  9.2680534E+01
 9.9807425E+00  9.2429062E+01
 9.9998808E+00  9.2243988E+01
 1.0019019E+01  9.1958557E+01
 1.0038158E+01  9.1807251E+01
 1.0057297E+01  9.1767906E+01
 1.0076435E+01  9.1704308E+01
 1.0095573E+01  9.1550056E+01
 1.0114712E+01  9.1342476E+01
 1.0133851E+01  9.1173744E+01
 1.0152989E+01  9.1058128E+01
 1.0172128E+01  9.0945099E+01
 1.0191266E+01  9.0720482E+01
 1.0210404E+01  9.0659882E+01
 1.0229544E+01  9.0575851E+01
 1.0248682E+01  9.0466492E+01
 1.0267820E+01  9.0146111E+01
 1.0286959E+01  8.9800301E+01
 1.0306097E+01  8.9696350E+01
 1.0325236E+01  8.9536697E+01
 1.0344375E+01  8.9237076E+01
 1.0363513E+01  8.8936806E+01
 1.0382651E+01  8.8707092E+01
 1.0401790E+01  8.8539604E+01
 1.0420929E+01  8.8373444E+01
 1.0440067E+01  8.8315567E+01
 1.0459206E+01  8.8078873E+01
 1.0478344E+01  8.7779991E+01
 1.0497482E+01  8.7486794E+01
 1.0516622E+01  8.7222710E+01
 1.0535760E+01  8.7007240E+01
 1.0554898E+01  8.6928093E+01
 1.0574037E+01  8.6916145E+01
 1.0593175E+01  8.6759041E+01
 1.0612314E+01  8.6436989E+01
 1.0631453E+01  8.6199638E+01
 1.0650591E+01  8.6061829E+01
 1.0669729E+01  8.5722527E+01
 1.0688868E+01  8.5463257E+01
 1.0708007E+01  8.5266693E+01
 1.0727145E+01  8.5103432E+01
 1.0746284E+01  8.5051865E+01
 1.0765422E+01  8.4879585E+01
 1.0784560E+01  8.4520027E+01
 1.0803699E+01  8.4240059E+01
 1.0822838E+01  8.3999664E+01
 1.0841976E+01  8.3710960E+01
 1.0861115E+01  8.3386940E+01
 1.0880253E+01  8.3246262E+01
 1.0899392E+01  8.3118134E+01
 1.0918530E+01  8.3002121E+01
 1.0937669E+01  8.2776901E+01
 1.0956807E+01  8.2594208E+01
 1.0975945E+01  8.2415314E+01
 1.0995085E+01  8.2173683E+01
 1.1014223E+01  8.1885704E+01
 1.1033361E+01  8.1722511E+01
 1.1052500E+01  8.1574898E+01
 1.1071638E+01  8.1376602E+01
 1.1090777E+01  8.1273033E+01
 1.1109916E+01  8.1105591E+01
 1.1129054E+01  8.0702309E+01
 1.1148192E+01  8.0510155E+01
 1.1167331E+01  8.0487465E+01
 1.1186470E+01  8.0459892E+01
 1.1205608E+01  8.0271507E+01
 1.1224747E+01  7.9946983E+01
 1.1243885E+01  7.9714722E+01
 1.1263023E+01  7.9340584E+01
 1.1282163E+01  7.9056236E+01
 1.1301301E+01  7.8864418E+01
 1.1320439E+01  7.8722939E+01
 1.1339578E+01  7.8573372E+01
 1.1358716E+01  7.8296455E+01
 1.1377855E+01  7.7988792E+01
 1.1396994E+01  7.7644012E+01
 1.1416132E+01  7.7370171E+01
 1.1435270E+01  7.7287872E+01
 1.1454409E+01  7.7179359E+01
 1.1473548E+01  7.6955284E+01
 1.1492686E+01  7.6640610E+01
 1.1511825E+01  7.6440727E+01
 1.1530963E+01  7.6262390E+01
 1.1550101E+01  7.6041412E+01
 1.1569241E+01  7.5761795E+01
 1.1588379E+01  7.5449722E+01
 1.1607517E+01  7.5287354E+01
 1.1626656E+01  7.5081459E+01
 1.1645794E+01  7.4887764E+01
 1.1664933E+01  7.4651138E+01
 1.1684072E+01  7.4349991E+01
 1.1703210E+01  7.4142441E+01
 1.1722348E+01  7.3916512E+01
 1.1741487E+01  7.3738548E+01
 1.1760626E+01  7.3617683E+01
 1.1779764E+01  7.3399475E+01
 1.1798903E+01  7.3164680E+01
 1.1818041E+01  7.2973282E+01
 1.1837179E+01  7.2789124E+01
 1.1856318E+01  7.2605782E+01
 1.1875457E+01  7.2430962E+01
 1.1894595E+01  7.2192543E+01
 1.1913733E+01  7.1965851E+01
 1.1932872E+01  7.1613518E+01
 1.1952011E+01  7.1375435E+01
 1.1971149E+01  7.1170448E+01
 1.1990288E+01  7.0909737E+01
 1.2009426E+01  7.0662354E+01
 1.2028564E+01  7.0526932E+01
 1.2047704E+01  7.0374619E+01
 1.2066842E+01  7.0226387E+01
 1.2085980E+01  7.0062149E+01
 1.2105119E+01  6.9944916E+01
 1.2124257E+01  6.9821182E+01
 1.2143396E+01  6.9615692E+01
 1.2162535E+01  6.9438881E+01
 1.2181673E+01  6.9357147E+01
 1.2200811E+01  6.9224327E+01
 1.2219950E+01  6.9153908E+01
 1.2239089E+01  6.9143898E+01
 1.2258227E+01  6.9137009E+01
 1.2277366E+01  6.9106529E+01
 1.2296504E+01  6.9139267E+01
 1.2315642E+01  6.9189018E+01
 1.2334782E+01  6.9125381E+01
 1.2353920E+01  6.8972717E+01
 1.2373058E+01  6.8786491E+01
 1.2392197E+01  6.8450195E+01
 1.2411335E+01  6.8044838E+01
 1.2430474E+01  6.7704857E+01
 1.2449613E+01  6.7440186E+01
 1.2468751E+01  6.7208565E+01
 1.2487889E+01  6.7059982E+01
 1.2507028E+01  6.6998611E+01
 1.2526167E+01  6.7034554E+01
 1.2545305E+01  6.7103111E+01
 1.2564444E+01  6.7188271E+01
 1.2583582E+01  6.7427727E+01
 1.2602720E+01  6.7708794E+01
 1.2621860E+01  6.8213882E+01
 1.2640998E+01  6.9013359E+01
 1.2660136E+01  7.0402885E+01
 1.2679275E+01  7.3078041E+01
 1.2698413E+01  7.8767593E+01
 1.2717552E+01  9.0510948E+01
 1.2736691E+01  1.1061903E+02
 1.2755829E+01  1.3498885E+02
 1.2774967E+01  1.4864586E+02
 1.2794106E+01  1.3784425E+02
 1.2813245E+01  1.1026915E+02
 1.2832383E+01  8.7056221E+01
 1.2851521E+01  7.5238472E+01
 1.2870660E+01  7.0053810E+01
 1.2889798E+01  6.7425972E+01
 1.2908937E+01  6.5741043E+01
 1.2928076E+01  6.4562386E+01
 1.2947214E+01  6.3768959E+01
 1.2966352E+01  6.3132771E+01
 1.2985491E+01  6.2595451E+01
 1.3004630E+01  6.2187374E+01
 1.3023768E+01  6.1809608E+01
 1.3042907E+01  6.1430611E+01
 1.3062045E+01  6.1110565E+01
 1.3081184E+01  6.0771751E+01
 1.3100323E+01  6.0568890E+01
 1.3119461E+01  6.0371403E+01
 1.3138599E+01  6.0134281E+01
 1.3157738E+01  5.9814262E+01
 1.3176877E+01  5.9575531E+01
 1.3196015E+01  5.9261787E+01
 1.3215154E+01  5.9003185E+01
 1.3234292E+01  5.8808151E+01
 1.3253430E+01  5.8597446E+01
 1.3272570E+01  5.8249561E+01
 1.3291708E+01  5.7993427E+01
 1.3310846E+01  5.7814857E+01
 1.3329985E+01  5.7608013E+01
 1.3349123E+01  5.7473686E+01
 1.3368262E+01  5.7347279E+01
 1.3387401E+01  5.7144409E+01
 1.3406539E+01  5.6991837E+01
 1.3425677E+01  5.6841991E+01
 1.3444816E+01  5.6716114E+01
 1.3463955E+01  5.6562950E+01
 1.3483093E+01  5.6408192E+01
 1.3502232E+01  5.6244209E+01
 1.3521370E+01  5.6054897E+01
 1.3540508E+01  5.5800503E+01
 1.3559648E+01  5.5506462E+01
 1.3578786E+01  5.5222313E+01
 1.3597924E+01  5.4963917E+01
 1.3617063E+01  5.4851261E+01
 1.3636201E+01  5.4791931E+01
 1.3655340E+01  5.4579113E+01
 1.3674479E+01  5.4360413E+01
 1.3693617E+01  5.4171082E+01
 1.3712755E+01  5.4096298E+01
 1.3731894E+01  5.4017475E+01
 1.3751033E+01  5.3844517E+01
 1.3770171E+01  5.3604218E+01
 1.3789310E+01  5.3380981E+01
 1.3808448E+01  5.3208508E+01
 1.3827586E+01  5.3070908E+01
 1.3846725E+01  5.2897697E+01
 1.3865864E+01  5.2776466E+01
 1.3885002E+01  5.2600842E+01
 1.3904140E+01  5.2454136E+01
 1.3923279E+01  5.2341160E+01
 1.3942418E+01  5.2258057E+01
 1.3961556E+01  5.2244038E+01
 1.3980695E+01  5.2160225E+01
 1.3999833E+01  5.1996040E+01
 1.4018971E+01  5.1851280E+01
 1.4038111E+01  5.1697941E+01
 1.4057249E+01  5.1589317E+01
 1.4076387E+01  5.1585011E+01
 1.4095526E+01  5.1547367E+01
 1.4114664E+01  5.1477295E+01
 1.4133803E+01  5.1473705E+01
 1.4152942E+01  5.1526451E+01
 1.4172080E+01  5.1565018E+01
 1.4191218E+01  5.1550468E+01
 1.4210357E+01  5.1534973E+01
 1.4229496E+01  5.1460453E+01
 1.4248634E+01  5.1377048E+01
 1.4267773E+01  5.1223316E+01
 1.4286911E+01  5.0952389E+01
 1.4306049E+01  5.0623783E+01
 1.4325189E+01  5.0244316E+01
 1.4344327E+01  4.9885048E+01
 1.4363465E+01  4.9678619E+01
 1.4382604E+01  4.9434071E+01
 1.4401742E+01  4.9116833E+01
 1.4420881E+01  4.8934067E+01
 1.4440020E+01  4.8740417E+01
 1.4459158E+01  4.8622906E+01
 1.4478296E+01  4.8427097E+01
 1.4497435E+01  4.8295933E+01
 1.4516574E+01  4.8234303E+01
 1.4535712E+01  4.8062511E+01
 1.4554851E+01  4.7812435E+01
 1.4573989E+01  4.7556568E+01
 1.4593127E+01  4.7327778E+01
 1.4612267E+01  4.7211300E+01
 1.4631405E+01  4.7093334E+01
 1.4650543E+01  4.6910088E+01
 1.4669682E+01  4.6814800E+01
 1.4688820E+01  4.6761662E+01
 1.4707959E+01  4.6680290E+01
 1.4727098E+01  4.6544415E+01
 1.4746236E+01  4.6568138E+01
 1.4765374E+01  4.6459019E+01
 1.4784513E+01  4.6222683E+01
 1.4803652E+01  4.5972752E+01
 1.4822790E+01  4.5816555E+01
 1.4841928E+01  4.5765633E+01
 1.4861067E+01  4.5760212E+01
 1.4880205E+01  4.5612034E+01
 1.4899344E+01  4.5381874E+01
 1.4918483E+01  4.5233276E+01
 1.4937621E+01  4.5101395E+01
 1.4956759E+01  4.5018085E+01
 1.4975898E+01  4.4925797E+01
 1.4995037E+01  4.4853756E+01
 1.5014175E+01  4.4801334E+01
 1.5033314E+01  4.4767864E+01
 1.5052452E+01  4.4651707E+01
 1.5071590E+01  4.4486675E+01
 1.5090730E+01  4.4253403E+01
 1.5109868E+01  4.4083416E+01
 1.5129006E+01  4.4039150E+01
 1.5148145E+01  4.3916931E+01
 1.5167283E+01  4.3865700E+01
 1.5186422E+01  4.3836624E+01
 1.5205561E+01  4.3774162E+01
 1.5224699E+01  4.3695190E+01
 1.5243837E+01  4.3657215E+01
 1.5262976E+01  4.3519562E+01
 1.5282115E+01  4.3476585E+01
 1.5301253E+01  4.3451408E+01
 1.5320392E+01  4.3274044E+01
 1.5339530E+01  4.3185883E+01
 1.5358668E+01  4.3122025E+01
 1.5377808E+01  4.3098621E+01
 1.5396946E+01  4.3147621E+01
 1.5416084E+01  4.3077240E+01
 1.5435223E+01  4.3021690E+01
 1.5454361E+01  4.2911922E+01
 1.5473500E+01  4.2789890E+01
 1.5492639E+01  4.2682693E+01
 1.5511777E+01  4.2551689E+01
 1.5530915E+01  4.2490456E+01
 1.5550054E+01  4.2499836E+01
 1.5569193E+01  4.2438534E+01
 1.5588331E+01  4.2339390E+01
 1.5607470E+01  4.2302158E+01
 1.5626608E+01  4.2223854E+01
 1.5645746E+01  4.2150562E+01
 1.5664886E+01  4.2106457E+01
 1.5684024E+01  4.2053787E+01
 1.5703162E+01  4.2074371E+01
 1.5722301E+01  4.2038048E+01
 1.5741439E+01  4.1987099E+01
 1.5760578E+01  4.1932652E+01
 1.5779716E+01  4.1844231E+01
 1.5798855E+01  4.1800949E+01
 1.5817993E+01  4.1727783E+01
 1.5837132E+01  4.1606274E+01
 1.5856271E+01  4.1497429E+01
 1.5875409E+01  4.1445061E+01
 1.5894547E+01  4.1467674E+01
 1.5913686E+01  4.1489677E+01
 1.5932824E+01  4.1488232E+01
 1.5951963E+01  4.1495144E+01
 1.5971102E+01  4.1546379E+01
 1.5990240E+01  4.1521736E+01
 1.6009378E+01  4.1478722E+01
 1.6028517E+01  4.1441589E+01
 1.6047655E+01  4.1495094E+01
 1.6066793E+01  4.1483479E+01
 1.6085934E+01  4.1420918E+01
 1.6105072E+01  4.1397038E+01
 1.6124210E+01  4.1399143E+01
 1.6143349E+01  4.1456059E+01
 1.6162487E+01  4.1480701E+01
 1.6181625E+01  4.1440746E+01
 1.6200764E+01  4.1462521E+01
 1.6219902E+01  4.1510593E+01
 1.6239040E+01  4.1611813E+01
 1.6258179E+01  4.1671444E+01
 1.6277319E+01  4.1817390E+01
 1.6296457E+01  4.1894028E+01
 1.6315596E+01  4.1803665E+01
 1.6334734E+01  4.1565571E+01
 1.6353872E+01  4.1386703E+01
 1.6373011E+01  4.1276264E+01
 1.6392149E+01  4.1258202E+01
 1.6411287E+01  4.1266720E+01
 1.6430426E+01  4.1128723E+01
 1.6449564E+01  4.0876125E+01
 1.6468704E+01  4.0744610E+01
 1.6487843E+01  4.0764519E+01
 1.6506981E+01  4.0793556E+01
 1.6526119E+01  4.0846329E+01
 1.6545258E+01  4.0960667E+01
 1.6564396E+01  4.1056019E+01
 1.6583534E+01  4.1097599E+01
 1.6602673E+01  4.0985867E+01
 1.6621811E+01  4.0769760E+01
 1.6640949E+01  4.0556816E+01
 1.6660089E+01  4.0468147E+01
 1.6679228E+01  4.0403679E+01
 1.6698366E+01  4.0274666E+01
 1.6717505E+01  4.0110828E+01
 1.6736643E+01  3.9963226E+01
 1.6755781E+01  3.9805706E+01
 1.6774920E+01  3.9781601E+01
 1.6794058E+01  3.9787388E+01
 1.6813196E+01  3.9770309E+01
 1.6832335E+01  3.9772717E+01
 1.6851475E+01  3.9791801E+01
 1.6870613E+01  3.9788807E+01
 1.6889751E+01  3.9773163E+01
 1.6908890E+01  3.9732876E+01
 1.6928028E+01  3.9704483E+01
 1.6947166E+01  3.9661205E+01
 1.6966305E+01  3.9770210E+01
 1.6985443E+01  3.9883976E+01
 1.7004581E+01  3.9872417E+01
 1.7023720E+01  3.9791332E+01
 1.7042860E+01  3.9782978E+01
 1.7061998E+01  3.9850857E+01
 1.7081137E+01  3.9882725E+01
 1.7100275E+01  3.9897800E+01
 1.7119413E+01  3.9988140E+01
 1.7138552E+01  4.0164536E+01
 1.7157690E+01  4.0307446E+01
 1.7176828E+01  4.0457378E+01
 1.7195967E+01  4.0433281E+01
 1.7215105E+01  4.0280849E+01
 1.7234245E+01  4.0198811E+01
 1.7253384E+01  4.0280396E+01
 1.7272522E+01  4.0285713E+01
 1.7291660E+01  4.0171154E+01
 1.7310799E+01  4.0031609E+01
 1.7329937E+01  4.0016647E+01
 1.7349075E+01  4.0046535E+01
 1.7368214E+01  4.0085346E+01
 1.7387352E+01  4.0132225E+01
 1.7406490E+01  4.0153004E+01
 1.7425631E+01  4.0205296E+01
 1.7444769E+01  4.0177853E+01
 1.7463907E+01  4.0265835E+01
 1.7483046E+01  4.0324184E+01
 1.7502184E+01  4.0389183E+01
 1.7521322E+01  4.0400490E+01
 1.7540461E+01  4.0403667E+01
 1.7559599E+01  4.0452320E+01
 1.7578737E+01  4.0490845E+01
 1.7597876E+01  4.0479015E+01
 1.7617016E+01  4.0495907E+01
 1.7636154E+01  4.0557854E+01
 1.7655293E+01  4.0646683E+01
 1.7674431E+01  4.0645042E+01
 1.7693569E+01  4.0675003E+01
 1.7712708E+01  4.0709846E+01
 1.7731846E+01  4.0728546E+01
 1.7750984E+01  4.0803608E+01
 1.7770123E+01  4.0865894E+01
 1.7789261E+01  4.0886433E+01
 1.7808401E+01  4.0932919E+01
 1.7827539E+01  4.0963135E+01
 1.7846678E+01  4.1009418E+01
 1.7865816E+01  4.1093182E+01
 1.7884954E+01  4.1166157E+01
 1.7904093E+01  4.1233788E+01
 1.7923231E+01  4.1300522E+01
 1.7942369E+01  4.1441235E+01
 1.7961508E+01  4.1530048E+01
 1.7980648E+01  4.1615810E+01
 1.7999786E+01  4.1583168E+01
 1.8018925E+01  4.1609699E+01
 1.8038063E+01  4.1692699E+01
 1.8057201E+01  4.1832676E+01
 1.8076340E+01  4.1877651E+01
 1.8095478E+01  4.1861675E+01
 1.8114616E+01  4.1951313E+01
 1.8133755E+01  4.2041187E+01
 1.8152893E+01  4.2127167E+01
 1.8172033E+01  4.2194675E+01
 1.8191172E+01  4.2156944E+01
 1.8210310E+01  4.2195404E+01
 1.8229448E+01  4.2320446E+01
 1.8248587E+01  4.2379364E+01
 1.8267725E+01  4.2415688E+01
 1.8286863E+01  4.2500671E+01
 1.8306002E+01  4.2574478E+01
 1.8325140E+01  4.2687099E+01
 1.8344278E+01  4.2801563E+01
 1.8363419E+01  4.2904907E+01
 1.8382557E+01  4.2966476E+01
 1.8401695E+01  4.3026600E+01
 1.8420834E+01  4.3085636E+01
 1.8439972E+01  4.3143784E+01
 1.8459110E+01  4.3223259E+01
 1.8478249E+01  4.3359211E+01
 1.8497387E+01  4.3538845E+01
 1.8516525E+01  4.3794666E+01
 1.8535664E+01  4.3981529E+01
 1.8554804E+01  4.4169662E+01
 1.8573942E+01  4.4261860E+01
 1.8593081E+01  4.4181725E+01
 1.8612219E+01  4.4151436E+01
 1.8631357E+01  4.4212559E+01
 1.8650496E+01  4.4252773E+01
 1.8669634E+01  4.4319386E+01
 1.8688772E+01  4.4443623E+01
 1.8707911E+01  4.4558304E+01
 1.8727049E+01  4.4787697E+01
 1.8746189E+01  4.5282986E+01
 1.8765327E+01  4.5959740E+01
 1.8784466E+01  4.6416485E+01
 1.8803604E+01  4.6246666E+01
 1.8822742E+01  4.5810978E+01
 1.8841881E+01  4.5735607E+01
 1.8861019E+01  4.5755840E+01
 1.8880157E+01  4.5747704E+01
 1.8899296E+01  4.5764324E+01
 1.8918434E+01  4.5846386E+01
 1.8937574E+01  4.5814579E+01
 1.8956713E+01  4.5703323E+01
 1.8975851E+01  4.5703762E+01
 1.8994989E+01  4.5722874E+01
 1.9014128E+01  4.5833107E+01
 1.9033266E+01  4.5936378E+01
 1.9052404E+01  4.5991898E+01
 1.9071543E+01  4.6004292E+01
 1.9090681E+01  4.6057152E+01
 1.9109819E+01  4.6153633E+01
 1.9128960E+01  4.6242508E+01
 1.9148098E+01  4.6308296E+01
 1.9167236E+01  4.6357357E+01
 1.9186375E+01  4.6450710E+01
 1.9205513E+01  4.6579678E+01
 1.9224651E+01  4.6672977E+01
 1.9243790E+01  4.6778267E+01
 1.9262928E+01  4.6930073E+01
 1.9282066E+01  4.7119774E+01
 1.9301205E+01  4.7232529E+01
 1.9320345E+01  4.7315350E+01
 1.9339483E+01  4.7498466E+01
 1.9358622E+01  4.7787426E+01
 1.9377760E+01  4.7981499E+01
 1.9396898E+01  4.7960896E+01
 1.9416037E+01  4.7936775E+01
 1.9435175E+01  4.7951912E+01
 1.9454313E+01  4.7938702E+01
 1.9473452E+01  4.8068794E+01
 1.9492590E+01  4.8205879E+01
 1.9511730E+01  4.8156151E+01
 1.9530869E+01  4.8203281E+01
 1.9550007E+01  4.8318913E+01
 1.9569145E+01  4.8457138E+01
 1.9588284E+01  4.8521389E+01
 1.9607422E+01  4.8602375E+01
 1.9626560E+01  4.8742489E+01
 1.9645699E+01  4.8971230E+01
 1.9664837E+01  4.9355003E+01
 1.9683975E+01  4.9856110E+01
 1.9703115E+01  4.9828861E+01
 1.9722254E+01  4.9641644E+01
 1.9741392E+01  4.9593601E+01
 1.9760530E+01  4.9564682E+01
 1.9779669E+01  4.9584404E+01
 1.9798807E+01  4.9681183E+01
 1.9817945E+01  4.9753948E+01
 1.9837084E+01  4.9880035E+01
 1.9856222E+01  5.0109287E+01
 1.9875360E+01  5.0325024E+01
 1.9894501E+01  5.0432755E+01
 1.9913639E+01  5.0505219E+01
 1.9932777E+01  5.0761951E+01
 1.9951916E+01  5.1070038E+01
 1.9971054E+01  5.1339184E+01
 1.9990192E+01  5.1668320E+01
 2.0009331E+01  5.2017841E+01
 2.0028469E+01  5.2445156E+01
 2.0047607E+01  5.2921139E+01
 2.0066746E+01  5.3509518E+01
 2.0085886E+01  5.4428890E+01
 2.0105024E+01  5.6041870E+01
 2.0124163E+01  5.9608318E+01
 2.0143301E+01  6.7115021E+01
 2.0162439E+01  7.6617790E+01
 2.0181578E+01  7.9955292E+01
 2.0200716E+01  7.3805862E+01
 2.0219854E+01  6.5170349E+01
 2.0238993E+01  5.9801540E+01
 2.0258131E+01  5.7310566E+01
 2.0277271E+01  5.6198673E+01
 2.0296410E+01  5.5586014E+01
 2.0315548E+01  5.5342209E+01
 2.0334686E+01  5.5320374E+01
 2.0353825E+01  5.5434502E+01
 2.0372963E+01  5.5597145E+01
 2.0392101E+01  5.5687416E+01
 2.0411240E+01  5.5952232E+01
 2.0430378E+01  5.6463253E+01
 2.0449516E+01  5.6984222E+01
 2.0468657E+01  5.7414043E+01
 2.0487795E+01  5.7902824E+01
 2.0506933E+01  5.8409031E+01
 2.0526072E+01  5.8818039E+01
 2.0545210E+01  5.9178806E+01
 2.0564348E+01  5.9522953E+01
 2.0583487E+01  5.9799820E+01
 2.0602625E+01  6.0157986E+01
 2.0621763E+01  6.0910606E+01
 2.0640902E+01  6.2363003E+01
 2.0660042E+01  6.4769302E+01
 2.0679180E+01  6.7621918E+01
 2.0698318E+01  6.9333923E+01
 2.0717457E+01  6.8513199E+01
 2.0736595E+01  6.5851616E+01
 2.0755733E+01  6.2985447E+01
 2.0774872E+01  6.0960346E+01
 2.0794010E+01  5.9935535E+01
 2.0813148E+01  5.9486080E+01
 2.0832287E+01  5.9173523E+01
 2.0851427E+01  5.8652878E+01
 2.0870565E+01  5.8098480E+01
 2.0889704E+01  5.7710365E+01
 2.0908842E+01  5.7541481E+01
 2.0927980E+01  5.7334179E+01
 2.0947119E+01  5.7268475E+01
 2.0966257E+01  5.7197971E+01
 2.0985395E+01  5.7034740E+01
 2.1004534E+01  5.6808567E+01
 2.1023672E+01  5.6513805E+01
 2.1042812E+01  5.6302891E+01
 2.1061951E+01  5.6225098E+01
 2.1081089E+01  5.6192711E+01
 2.1100227E+01  5.6094509E+01
 2.1119366E+01  5.5968922E+01
 2.1138504E+01  5.5950878E+01
 2.1157642E+01  5.5959972E+01
 2.1176781E+01  5.5858051E+01
 2.1195919E+01  5.5648479E+01
 2.1215057E+01  5.5528442E+01
 2.1234198E+01  5.5484196E+01
 2.1253336E+01  5.5364941E+01
 2.1272474E+01  5.5169483E+01
 2.1291613E+01  5.5070724E+01
 2.1310751E+01  5.5060741E+01
 2.1329889E+01  5.4965919E+01
 2.1349028E+01  5.4860477E+01
 2.1368166E+01  5.4824356E+01
 2.1387304E+01  5.4821274E+01
 2.1406445E+01  5.4763393E+01
 2.1425583E+01  5.4650387E+01
 2.1444721E+01  5.4539257E+01
 2.1463860E+01  5.4479561E+01
 2.1482998E+01  5.4417271E+01
 2.1502136E+01  5.4343082E+01
 2.1521275E+01  5.4348873E+01
 2.1540413E+01  5.4316368E+01
 2.1559551E+01  5.4330566E+01
 2.1578690E+01  5.4227833E+01
 2.1597830E+01  5.4178139E+01
 2.1616968E+01  5.4211555E+01
 2.1636106E+01  5.4397282E+01
 2.1655245E+01  5.4499416E+01
 2.1674383E+01  5.4555965E+01
 2.1693521E+01  5.4647411E+01
 2.1712660E+01  5.4763618E+01
 2.1731798E+01  5.4970493E+01
 2.1750937E+01  5.5352825E+01
 2.1770075E+01  5.5701862E+01
 2.1789215E+01  5.5753944E+01
 2.1808353E+01  5.5381233E+01
 2.1827492E+01  5.4908001E+01
 2.1846630E+01  5.4486832E+01
 2.1865768E+01  5.4147293E+01
 2.1884907E+01  5.3968620E+01
 2.1904045E+01  5.3854172E+01
 2.1923183E+01  5.3760620E+01
 2.1942322E+01  5.3700081E+01
 2.1961460E+01  5.3623383E+01
 2.1980600E+01  5.3530624E+01
 2.1999739E+01  5.3479691E+01
 2.2018877E+01  5.3434502E+01
 2.2038015E+01  5.3307674E+01
 2.2057154E+01  5.3249187E+01
 2.2076292E+01  5.3261768E+01
 2.2095430E+01  5.3273148E+01
 2.2114569E+01  5.3156548E+01
 2.2133707E+01  5.3013924E+01
 2.2152845E+01  5.2906116E+01
 2.2171986E+01  5.2837784E+01
 2.2191124E+01  5.2875622E+01
 2.2210262E+01  5.2909306E+01
 2.2229401E+01  5.2917107E+01
 2.2248539E+01  5.2937981E+01
 2.2267677E+01  5.3011581E+01
 2.2286816E+01  5.3027752E+01
 2.2305954E+01  5.2997944E+01
 2.2325092E+01  5.3029522E+01
 2.2344231E+01  5.3063442E+01
 2.2363371E+01  5.3222794E+01
 2.2382509E+01  5.3519707E+01
 2.2401648E+01  5.3900192E+01
 2.2420786E+01  5.4424339E+01
 2.2439924E+01  5.5212097E+01
 2.2459063E+01  5.6187931E+01
 2.2478201E+01  5.7025883E+01
 2.2497339E+01  5.7648697E+01
 2.2516478E+01  5.8185497E+01
 2.2535616E+01  5.8517838E+01
 2.2554756E+01  5.8455090E+01
 2.2573895E+01  5.7860432E+01
 2.2593033E+01  5.6726013E+01
 2.2612171E+01  5.5661240E+01
 2.2631310E+01  5.4574490E+01
 2.2650448E+01  5.3618271E+01
 2.2669586E+01  5.3067314E+01
 2.2688725E+01  5.2712276E+01
 2.2707863E+01  5.2428516E+01
 2.2727001E+01  5.2260578E+01
 2.2746141E+01  5.2145416E+01
 2.2765280E+01  5.2276096E+01
 2.2784418E+01  5.2855396E+01
 2.2803556E+01  5.3757713E+01
 2.2822695E+01  5.4874870E+01
 2.2841833E+01  5.5606812E+01
 2.2860971E+01  5.5268459E+01
 2.2880110E+01  5.4318157E+01
 2.2899248E+01  5.3522861E+01
 2.2918386E+01  5.3348221E+01
 2.2937527E+01  5.3113644E+01
 2.2956665E+01  5.2531990E+01
 2.2975803E+01  5.1967747E+01
 2.2994942E+01  5.1328671E+01
 2.3014080E+01  5.0704472E+01
 2.3033218E+01  5.0340477E+01
 2.3052357E+01  5.0103485E+01
 2.3071495E+01  4.9858437E+01
 2.3090633E+01  4.9522827E+01
 2.3109772E+01  4.9192711E+01
 2.3128912E+01  4.8976440E+01
 2.3148050E+01  4.8807541E+01
 2.3167189E+01  4.8832130E+01
 2.3186327E+01  4.8882130E+01
 2.3205465E+01  4.8757469E+01
 2.3224604E+01  4.8578213E+01
 2.3243742E+01  4.8754848E+01
 2.3262880E+01  4.9181164E+01
 2.3282019E+01  4.9600323E+01
 2.3301157E+01  4.9795322E+01
 2.3320297E+01  4.9742832E+01
 2.3339436E+01  4.9392502E+01
 2.3358574E+01  4.8926590E+01
 2.3377712E+01  4.8592358E+01
 2.3396851E+01  4.8357452E+01
 2.3415989E+01  4.8197548E+01
 2.3435127E+01  4.8148262E+01
 2.3454266E+01  4.8261456E+01
 2.3473404E+01  4.8400574E+01
 2.3492542E+01  4.8374737E+01
 2.3511683E+01  4.8363766E+01
 2.3530821E+01  4.8280674E+01
 2.3549959E+01  4.8316254E+01
 2.3569098E+01  4.8435818E+01
 2.3588236E+01  4.8530258E+01
 2.3607374E+01  4.8730801E+01
 2.3626513E+01  4.9148739E+01
 2.3645651E+01  4.9623188E+01
 2.3664789E+01  5.0224117E+01
 2.3683928E+01  5.1056118E+01
 2.3703068E+01  5.1903450E+01
 2.3722206E+01  5.2941311E+01
 2.3741344E+01  5.4351170E+01
 2.3760483E+01  5.6605186E+01
 2.3779621E+01  6.0629681E+01
 2.3798759E+01  6.8662415E+01
 2.3817898E+01  8.4708359E+01
 2.3837036E+01  1.1265386E+02
 2.3856174E+01  1.4911424E+02
 2.3875313E+01  1.7672511E+02
 2.3894453E+01  1.7499846E+02
 2.3913591E+01  1.4527061E+02
 2.3932730E+01  1.0903599E+02
 2.3951868E+01  8.2746750E+01
 2.3971006E+01  6.7700737E+01
 2.3990145E+01  5.9738243E+01
 2.4009283E+01  5.5583637E+01
 2.4028421E+01  5.3234901E+01
 2.4047560E+01  5.1712566E+01
 2.4066698E+01  5.0591785E+01
 2.4085838E+01  4.9550682E+01
 2.4104977E+01  4.8589451E+01
 2.4124115E+01  4.7804436E+01
 2.4143253E+01  4.7288448E+01
 2.4162392E+01  4.6913609E+01
 2.4181530E+01  4.6575768E+01
 2.4200668E+01  4.6449612E+01
 2.4219807E+01  4.6289726E+01
 2.4238945E+01  4.6075378E+01
 2.4258083E+01  4.5840752E+01
 2.4277224E+01  4.5633129E+01
 2.4296362E+01  4.5386429E+01
 2.4315500E+01  4.5285671E+01
 2.4334639E+01  4.5146080E+01
 2.4353777E+01  4.4909336E+01
 2.4372915E+01  4.4744476E+01
 2.4392054E+01  4.4546825E+01
 2.4411192E+01  4.4338795E+01
 2.4430330E+01  4.4196625E+01
 2.4449469E+01  4.4069469E+01
 2.4468609E+01  4.4042015E+01
 2.4487747E+01  4.3980968E+01
 2.4506886E+01  4.3982330E+01
 2.4526024E+01  4.4027542E+01
 2.4545162E+01  4.3963474E+01
 2.4564301E+01  4.4023502E+01
 2.4583439E+01  4.4080086E+01
 2.4602577E+01  4.4124886E+01
 2.4621716E+01  4.4181263E+01
 2.4640856E+01  4.4182850E+01
 2.4659994E+01  4.4178886E+01
 2.4679132E+01  4.4098877E+01
 2.4698271E+01  4.3987324E+01
 2.4717409E+01  4.3839996E+01
 2.4736547E+01  4.3647850E+01
 2.4755686E+01  4.3425411E+01
 2.4774824E+01  4.3178738E+01
 2.4793962E+01  4.2953018E+01
 2.4813101E+01  4.2760784E+01
 2.4832241E+01  4.2566086E+01
 2.4851379E+01  4.2447281E+01
 2.4870518E+01  4.2359119E+01
 2.4889656E+01  4.2262688E+01
 2.4908794E+01  4.2237904E+01
 2.4927933E+01  4.2172012E+01
 2.4947071E+01  4.2034389E+01
 2.4966209E+01  4.1805676E+01
 2.4985348E+01  4.1700073E+01
 2.5004486E+01  4.1665264E+01
 2.5023626E+01  4.1568497E+01
 2.5042765E+01  4.1511585E+01
 2.5061903E+01  4.1501438E+01
 2.5081041E+01  4.1645458E+01
 2.5100180E+01  4.1738556E+01
 2.5119318E+01  4.1831295E+01
 2.5138456E+01  4.2035122E+01
 2.5157595E+01  4.2354233E+01
 2.5176733E+01  4.2609314E+01
 2.5195871E+01  4.2625687E+01
 2.5215012E+01  4.2485558E+01
 2.5234150E+01  4.2140884E+01
 2.5253288E+01  4.1876614E+01
 2.5272427E+01  4.1574097E+01
 2.5291565E+01  4.1372887E+01
 2.5310703E+01  4.1278023E+01
 2.5329842E+01  4.1157959E+01
 2.5348980E+01  4.1021729E+01
 2.5368118E+01  4.0950607E+01
 2.5387257E+01  4.0929188E+01
 2.5406397E+01  4.0852970E+01
 2.5425535E+01  4.0910847E+01
 2.5444674E+01  4.1026394E+01
 2.5463812E+01  4.1037827E+01
 2.5482950E+01  4.1066128E+01
 2.5502089E+01  4.1240154E+01
 2.5521227E+01  4.1475368E+01
 2.5540365E+01  4.1690414E+01
 2.5559504E+01  4.1893280E+01
 2.5578642E+01  4.1916283E+01
 2.5597782E+01  4.1844700E+01
 2.5616920E+01  4.1802979E+01
 2.5636059E+01  4.1646023E+01
 2.5655197E+01  4.1556328E+01
 2.5674335E+01  4.1487576E+01
 2.5693474E+01  4.1368965E+01
 2.5712612E+01  4.1188221E+01
 2.5731750E+01  4.1080296E+01
 2.5750889E+01  4.1045364E+01
 2.5770027E+01  4.1039204E+01
 2.5789167E+01  4.1028111E+01
 2.5808306E+01  4.1052387E+01
 2.5827444E+01  4.0923897E+01
 2.5846582E+01  4.0748203E+01
 2.5865721E+01  4.0633945E+01
 2.5884859E+01  4.0610016E+01
 2.5903997E+01  4.0587746E+01
 2.5923136E+01  4.0549801E+01
 2.5942274E+01  4.0544567E+01
 2.5961412E+01  4.0533722E+01
 2.5980553E+01  4.0594307E+01
 2.5999691E+01  4.0586670E+01
 2.6018829E+01  4.0618393E+01
 2.6037968E+01  4.0661034E+01
 2.6057106E+01  4.0696075E+01
 2.6076244E+01  4.0590813E+01
 2.6095383E+01  4.0396160E+01
 2.6114521E+01  4.0253216E+01
 2.6133659E+01  4.0073956E+01
 2.6152798E+01  3.9914974E+01
 2.6171938E+01  3.9765610E+01
 2.6191076E+01  3.9657692E+01
 2.6210215E+01  3.9609470E+01
 2.6229353E+01  3.9589378E+01
 2.6248491E+01  3.9599693E+01
 2.6267630E+01  3.9617432E+01
 2.6286768E+01  3.9595203E+01
 2.6305906E+01  3.9528419E+01
 2.6325045E+01  3.9562065E+01
 2.6344183E+01  3.9586033E+01
 2.6363323E+01  3.9637966E+01
 2.6382462E+01  3.9688812E+01
 2.6401600E+01  3.9661652E+01
 2.6420738E+01  3.9685257E+01
 2.6439877E+01  3.9729950E+01
 2.6459015E+01  3.9669399E+01
 2.6478153E+01  3.9627502E+01
 2.6497292E+01  3.9701298E+01
 2.6516430E+01  3.9760689E+01
 2.6535568E+01  3.9814743E+01
 2.6554708E+01  3.9823868E+01
 2.6573847E+01  3.9804836E+01
 2.6592985E+01  3.9825386E+01
 2.6612123E+01  3.9842014E+01
 2.6631262E+01  3.9757401E+01
 2.6650400E+01  3.9823322E+01
 2.6669538E+01  3.9768768E+01
 2.6688677E+01  3.9732456E+01
 2.6707815E+01  3.9720909E+01
 2.6726954E+01  3.9722076E+01
 2.6746094E+01  3.9754013E+01
 2.6765232E+01  3.9816181E+01
 2.6784370E+01  3.9864841E+01
 2.6803509E+01  3.9819500E+01
 2.6822647E+01  3.9785751E+01
 2.6841785E+01  3.9791794E+01
 2.6860924E+01  3.9868320E+01
 2.6880062E+01  3.9822800E+01
 2.6899200E+01  3.9770954E+01
 2.6918339E+01  3.9830433E+01
 2.6937479E+01  3.9970715E+01
 2.6956617E+01  4.0060596E+01
 2.6975756E+01  4.0105145E+01
 2.6994894E+01  4.0145142E+01
 2.7014032E+01  4.0156960E+01
 2.7033171E+01  4.0252430E+01
 2.7052309E+01  4.0272949E+01
 2.7071447E+01  4.0305317E+01
 2.7090586E+01  4.0282986E+01
 2.7109724E+01  4.0309299E+01
 2.7128864E+01  4.0398411E+01
 2.7148003E+01  4.0436909E+01
 2.7167141E+01  4.0481117E+01
 2.7186279E+01  4.0425007E+01
 2.7205418E+01  4.0453606E+01
 2.7224556E+01  4.0439327E+01
 2.7243694E+01  4.0525875E+01
 2.7262833E+01  4.0633110E+01
 2.7281971E+01  4.0655529E+01
 2.7301109E+01  4.0694576E+01
 2.7320250E+01  4.0709244E+01
 2.7339388E+01  4.0763603E+01
 2.7358526E+01  4.0812477E+01
 2.7377665E+01  4.0949032E+01
 2.7396803E+01  4.1207294E+01
 2.7415941E+01  4.1567158E+01
 2.7435080E+01  4.2020607E+01
 2.7454218E+01  4.2537628E+01
 2.7473356E+01  4.3116390E+01
 2.7492495E+01  4.3612228E+01
 2.7511635E+01  4.3621365E+01
 2.7530773E+01  4.3270340E+01
 2.7549911E+01  4.2751709E+01
 2.7569050E+01  4.2243710E+01
 2.7588188E+01  4.1931839E+01
 2.7607327E+01  4.1779572E+01
 2.7626465E+01  4.1632774E+01
 2.7645603E+01  4.1466187E+01
 2.7664742E+01  4.1423866E+01
 2.7683880E+01  4.1350243E+01
 2.7703020E+01  4.1210690E+01
 2.7722158E+01  4.1087589E+01
 2.7741297E+01  4.1001934E+01
 2.7760435E+01  4.0876133E+01
 2.7779573E+01  4.0762344E+01
 2.7798712E+01  4.0683926E+01
 2.7817850E+01  4.0684986E+01
 2.7836988E+01  4.0682449E+01
 2.7856127E+01  4.0693607E+01
 2.7875267E+01  4.0717300E+01
 2.7894405E+01  4.0733009E+01
 2.7913544E+01  4.0734997E+01
 2.7932682E+01  4.0756256E+01
 2.7951820E+01  4.0700836E+01
 2.7970959E+01  4.0717823E+01
 2.7990097E+01  4.0705475E+01
 2.8009235E+01  4.0674797E+01
 2.8028374E+01  4.0703758E+01
 2.8047512E+01  4.0809681E+01
 2.8066652E+01  4.0829277E+01
 2.8085791E+01  4.0841534E+01
 2.8104929E+01  4.0811020E+01
 2.8124067E+01  4.0808941E+01
 2.8143206E+01  4.0866112E+01
 2.8162344E+01  4.0933689E+01
 2.8181482E+01  4.0912556E+01
 2.8200621E+01  4.0903164E+01
 2.8219759E+01  4.0943367E+01
 2.8238897E+01  4.0947960E+01
 2.8258038E+01  4.0909981E+01
 2.8277176E+01  4.0944031E+01
 2.8296314E+01  4.1030392E+01
 2.8315453E+01  4.1104420E+01
 2.8334591E+01  4.1229229E+01
 2.8353729E+01  4.1303329E+01
 2.8372868E+01  4.1432808E+01
 2.8392006E+01  4.1528656E+01
 2.8411144E+01  4.1605362E+01
 2.8430283E+01  4.1638916E+01
 2.8449423E+01  4.1708736E+01
 2.8468561E+01  4.1787464E+01
 2.8487700E+01  4.2002968E+01
 2.8506838E+01  4.2211277E+01
 2.8525976E+01  4.2442326E+01
 2.8545115E+01  4.2644054E+01
 2.8564253E+01  4.2787678E+01
 2.8583391E+01  4.2976894E+01
 2.8602530E+01  4.3262196E+01
 2.8621668E+01  4.3608486E+01
 2.8640808E+01  4.3823814E+01
 2.8659946E+01  4.3652355E+01
 2.8679085E+01  4.3344456E+01
 2.8698223E+01  4.2867832E+01
 2.8717361E+01  4.2604511E+01
 2.8736500E+01  4.2605709E+01
 2.8755638E+01  4.2542316E+01
 2.8774776E+01  4.2391865E+01
 2.8793915E+01  4.2139763E+01
 2.8813053E+01  4.1953865E+01
 2.8832193E+01  4.1899662E+01
 2.8851332E+01  4.1969250E+01
 2.8870470E+01  4.2104973E+01
 2.8889608E+01  4.2205799E+01
 2.8908747E+01  4.2202042E+01
 2.8927885E+01  4.2185722E+01
 2.8947023E+01  4.2243603E+01
 2.8966162E+01  4.2229546E+01
 2.8985300E+01  4.2186600E+01
 2.9004438E+01  4.2136524E+01
 2.9023579E+01  4.2052830E+01
 2.9042717E+01  4.2006031E+01
 2.9061855E+01  4.1982468E+01
 2.9080994E+01  4.1937778E+01
 2.9100132E+01  4.2004051E+01
 2.9119270E+01  4.2127991E+01
 2.9138409E+01  4.2111694E+01
 2.9157547E+01  4.2027859E+01
 2.9176685E+01  4.2120659E+01
 2.9195824E+01  4.2057209E+01
 2.9214964E+01  4.1949242E+01
 2.9234102E+01  4.1919388E+01
 2.9253241E+01  4.1892071E+01
 2.9272379E+01  4.1909843E+01
 2.9291517E+01  4.1845497E+01
 2.9310656E+01  4.1813534E+01
 2.9329794E+01  4.1872173E+01
 2.9348932E+01  4.1870663E+01
 2.9368071E+01  4.1955032E+01
 2.9387209E+01  4.2038910E+01
 2.9406349E+01  4.2157036E+01
 2.9425488E+01  4.2152424E+01
 2.9444626E+01  4.2168118E+01
 2.9463764E+01  4.2171318E+01
 2.9482903E+01  4.2071213E+01
 2.9502041E+01  4.1956005E+01
 2.9521179E+01  4.1885670E+01
 2.9540318E+01  4.1845509E+01
 2.9559456E+01  4.1828663E+01
 2.9578594E+01  4.1808422E+01
 2.9597734E+01  4.1820179E+01
 2.9616873E+01  4.1905693E+01
 2.9636011E+01  4.1943668E+01
 2.9655149E+01  4.1883377E+01
 2.9674288E+01  4.1943336E+01
 2.9693426E+01  4.1981697E+01
 2.9712564E+01  4.2165085E+01
 2.9731703E+01  4.2442417E+01
 2.9750841E+01  4.3121841E+01
 2.9769979E+01  4.4447716E+01
 2.9789120E+01  4.5613865E+01
 2.9808258E+01  4.5907272E+01
 2.9827396E+01  4.5235088E+01
 2.9846535E+01  4.3927948E+01
 2.9865673E+01  4.2947170E+01
 2.9884811E+01  4.2467716E+01
 2.9903950E+01  4.2331146E+01
 2.9923088E+01  4.2309395E+01
 2.9942226E+01  4.2483471E+01
 2.9961365E+01  4.2838089E+01
 2.9980505E+01  4.3310532E+01
 2.9999643E+01  4.3556767E+01
 3.0018782E+01  4.3481930E+01
 3.0037920E+01  4.3160957E+01
 3.0057058E+01  4.2745255E+01
 3.0076197E+01  4.2377922E+01
 3.0095335E+01  4.2179363E+01
 3.0114473E+01  4.2033840E+01
 3.0133612E+01  4.1876968E+01
 3.0152750E+01  4.1775085E+01
 3.0171890E+01  4.1676327E+01
 3.0191029E+01  4.1651096E+01
 3.0210167E+01  4.1617207E+01
 3.0229305E+01  4.1625145E+01
 3.0248444E+01  4.1633362E+01
 3.0267582E+01  4.1564743E+01
 3.0286720E+01  4.1591206E+01
 3.0305859E+01  4.1611279E+01
 3.0324997E+01  4.1491108E+01
 3.0344135E+01  4.1485058E+01
 3.0363276E+01  4.1472363E+01
 3.0382414E+01  4.1473289E+01
 3.0401552E+01  4.1455502E+01
 3.0420691E+01  4.1494671E+01
 3.0439829E+01  4.1611328E+01
 3.0458967E+01  4.1704269E+01
 3.0478106E+01  4.1706936E+01
 3.0497244E+01  4.1875782E+01
 3.0516382E+01  4.1989140E+01
 3.0535521E+01  4.2005482E+01
 3.0554661E+01  4.2137081E+01
 3.0573799E+01  4.2272655E+01
 3.0592937E+01  4.2264614E+01
 3.0612076E+01  4.2190674E+01
 3.0631214E+01  4.2056850E+01
 3.0650352E+01  4.1867279E+01
 3.0669491E+01  4.1715302E+01
 3.0688629E+01  4.1538193E+01
 3.0707767E+01  4.1422153E+01
 3.0726906E+01  4.1409286E+01
 3.0746046E+01  4.1420803E+01
 3.0765184E+01  4.1440014E+01
 3.0784323E+01  4.1445389E+01
 3.0803461E+01  4.1530735E+01
 3.0822599E+01  4.1469166E+01
 3.0841738E+01  4.1501385E+01
 3.0860876E+01  4.1614258E+01
 3.0880014E+01  4.1779072E+01
 3.0899153E+01  4.1879776E+01
 3.0918291E+01  4.1990486E+01
 3.0937431E+01  4.2064934E+01
 3.0956570E+01  4.2088875E+01
 3.0975708E+01  4.2160500E+01
 3.0994846E+01  4.2269573E+01
 3.1013985E+01  4.2245167E+01
 3.1033123E+01  4.2152420E+01
 3.1052261E+01  4.2072441E+01
 3.1071400E+01  4.1911964E+01
 3.1090538E+01  4.1774517E+01
 3.1109678E+01  4.1684200E+01
 3.1128817E+01  4.1596539E+01
 3.1147955E+01  4.1424881E+01
 3.1167093E+01  4.1222008E+01
 3.1186232E+01  4.1084923E+01
 3.1205370E+01  4.0947929E+01
 3.1224508E+01  4.0891747E+01
 3.1243647E+01  4.0770157E+01
 3.1262785E+01  4.0699787E+01
 3.1281923E+01  4.0606258E+01
 3.1301064E+01  4.0538662E+01
 3.1320202E+01  4.0451233E+01
 3.1339340E+01  4.0434425E+01
 3.1358479E+01  4.0375500E+01
 3.1377617E+01  4.0411957E+01
 3.1396755E+01  4.0441307E+01
 3.1415894E+01  4.0432285E+01
 3.1435032E+01  4.0397896E+01
 3.1454170E+01  4.0351540E+01
 3.1473309E+01  4.0389301E+01
 3.1492449E+01  4.0412567E+01
 3.1511587E+01  4.0412327E+01
 3.1530725E+01  4.0381138E+01
 3.1549864E+01  4.0409710E+01
 3.1569002E+01  4.0377007E+01
 3.1588140E+01  4.0359032E+01
 3.1607279E+01  4.0496567E+01
 3.1626417E+01  4.0721699E+01
 3.1645555E+01  4.0885307E+01
 3.1664694E+01  4.0953030E+01
 3.1683834E+01  4.0870117E+01
 3.1702972E+01  4.0730221E+01
 3.1722111E+01  4.0590321E+01
 3.1741249E+01  4.0475513E+01
 3.1760387E+01  4.0313229E+01
 3.1779526E+01  4.0061562E+01
 3.1798664E+01  4.0051109E+01
 3.1817802E+01  4.0106796E+01
 3.1836941E+01  4.0082363E+01
 3.1856079E+01  4.0028637E+01
 3.1875219E+01  3.9935745E+01
 3.1894358E+01  3.9877842E+01
 3.1913496E+01  3.9835300E+01
 3.1932634E+01  3.9842739E+01
 3.1951773E+01  3.9875935E+01
 3.1970911E+01  3.9859806E+01
 3.1990049E+01  3.9846909E+01
 3.2009190E+01  3.9891083E+01
 3.2028328E+01  3.9802708E+01
 3.2047466E+01  3.9506290E+01
 3.2066605E+01  3.9170650E+01
 3.2085743E+01  3.9307281E+01
 3.2104881E+01  3.9309540E+01
 3.2124020E+01  3.9281242E+01
 3.2143158E+01  3.9274883E+01
 3.2162296E+01  3.9300713E+01
 3.2181435E+01  3.9328964E+01
 3.2200573E+01  3.9346054E+01
 3.2219711E+01  3.9452656E+01
 3.2238850E+01  3.9540554E+01
 3.2257988E+01  3.9619041E+01
 3.2277126E+01  3.9674755E+01
 3.2296265E+01  3.9709724E+01
 3.2315403E+01  3.9726494E+01
 3.2334541E+01  3.9816223E+01
 3.2353683E+01  4.0183270E+01
 3.2372822E+01  4.0621517E+01
 3.2391960E+01  4.1275616E+01
 3.2411098E+01  4.2311066E+01
 3.2430237E+01  4.3659634E+01
 3.2449375E+01  4.5879803E+01
 3.2468513E+01  4.9272709E+01
 3.2487652E+01  5.3966812E+01
 3.2506790E+01  5.9883854E+01
 3.2525928E+01  6.6196342E+01
 3.2545067E+01  7.1822578E+01
 3.2564205E+01  7.5228165E+01
 3.2583344E+01  7.4361160E+01
 3.2602482E+01  6.9093254E+01
 3.2621620E+01  6.1711910E+01
 3.2640759E+01  5.4714703E+01
 3.2659897E+01  4.9555908E+01
 3.2679035E+01  4.6073048E+01
 3.2698174E+01  4.3967163E+01
 3.2717312E+01  4.2623333E+01
 3.2736454E+01  4.1878792E+01
 3.2755592E+01  4.1398666E+01
 3.2774731E+01  4.1044472E+01
 3.2793869E+01  4.0882343E+01
 3.2813007E+01  4.0934940E+01
 3.2832146E+01  4.1183510E+01
 3.2851284E+01  4.1285652E+01
 3.2870422E+01  4.1080601E+01
 3.2889561E+01  4.0837955E+01
 3.2908699E+01  4.0556767E+01
 3.2927837E+01  4.0147816E+01
 3.2946976E+01  3.9788311E+01
 3.2966114E+01  3.9599129E+01
 3.2985252E+01  3.9323200E+01
 3.3004391E+01  3.9129246E+01
 3.3023529E+01  3.8872932E+01
 3.3042667E+01  3.8860062E+01
 3.3061806E+01  3.8983177E+01
 3.3080944E+01  3.8801449E+01
 3.3100082E+01  3.8549557E+01
 3.3119225E+01  3.8403065E+01
 3.3138363E+01  3.8172199E+01
 3.3157501E+01  3.8029518E+01
 3.3176640E+01  3.7969570E+01
 3.3195778E+01  3.7884300E+01
 3.3214916E+01  3.7865913E+01
 3.3234055E+01  3.7768574E+01
 3.3253193E+01  3.7712452E+01
 3.3272331E+01  3.7742958E+01
 3.3291470E+01  3.7859509E+01
 3.3310608E+01  3.7918652E+01
 3.3329746E+01  3.7956852E+01
 3.3348885E+01  3.7865402E+01
 3.3368023E+01  3.7825298E+01
 3.3387161E+01  3.7871765E+01
 3.3406300E+01  3.7849701E+01
 3.3425438E+01  3.7918324E+01
 3.3444576E+01  3.8129265E+01
 3.3463715E+01  3.8359432E+01
 3.3482853E+01  3.8633511E+01
 3.3501995E+01  3.8771511E+01
 3.3521133E+01  3.8735001E+01
 3.3540272E+01  3.8621056E+01
 3.3559410E+01  3.8397083E+01
 3.3578548E+01  3.8117134E+01
 3.3597687E+01  3.7999542E+01
 3.3616825E+01  3.7880951E+01
 3.3635963E+01  3.7822960E+01
 3.3655102E+01  3.7763054E+01
 3.3674240E+01  3.7709805E+01
 3.3693378E+01  3.7638901E+01
 3.3712517E+01  3.7576534E+01
 3.3731655E+01  3.7638767E+01
 3.3750793E+01  3.7703522E+01
 3.3769932E+01  3.7706223E+01
 3.3789070E+01  3.7670490E+01
 3.3808208E+01  3.7636761E+01
 3.3827347E+01  3.7675873E+01
 3.3846485E+01  3.7609791E+01
 3.3865623E+01  3.7535671E+01
 3.3884766E+01  3.7644863E+01
 3.3903904E+01  3.7755875E+01
 3.3923042E+01  3.7762108E+01
 3.3942181E+01  3.7840782E+01
 3.3961319E+01  3.7882065E+01
 3.3980457E+01  3.7997860E+01
 3.3999596E+01  3.8156811E+01
 3.4018734E+01  3.8236996E+01
 3.4037872E+01  3.8235596E+01
 3.4057011E+01  3.8387344E+01
 3.4076149E+01  3.8462120E+01
 3.4095287E+01  3.8335026E+01
 3.4114426E+01  3.8347935E+01
 3.4133564E+01  3.8488453E+01
 3.4152702E+01  3.8563644E+01
 3.4171841E+01  3.8791794E+01
 3.4190979E+01  3.9000008E+01
 3.4210117E+01  3.9227341E+01
 3.4229256E+01  3.9539433E+01
 3.4248394E+01  3.9657154E+01
 3.4267536E+01  3.9819397E+01
 3.4286674E+01  4.0078259E+01
 3.4305813E+01  4.0278542E+01
 3.4324951E+01  4.0541870E+01
 3.4344090E+01  4.0820728E+01
 3.4363228E+01  4.1032654E+01
 3.4382366E+01  4.1068733E+01
 3.4401505E+01  4.1205013E+01
 3.4420643E+01  4.1347401E+01
 3.4439781E+01  4.1390266E+01
 3.4458920E+01  4.1227943E+01
 3.4478058E+01  4.0971432E+01
 3.4497196E+01  4.0906368E+01
 3.4516335E+01  4.0747482E+01
 3.4535473E+01  4.0523449E+01
 3.4554611E+01  4.0249893E+01
 3.4573750E+01  4.0012295E+01
 3.4592888E+01  3.9803284E+01
 3.4612026E+01  3.9611210E+01
 3.4631168E+01  3.9463516E+01
 3.4650307E+01  3.9364120E+01
 3.4669445E+01  3.9152100E+01
 3.4688583E+01  3.9123962E+01
 3.4707722E+01  3.9234699E+01
 3.4726860E+01  3.9232239E+01
 3.4745998E+01  3.9332764E+01
 3.4765137E+01  3.9509796E+01
 3.4784275E+01  3.9843151E+01
 3.4803413E+01  3.9993961E+01
 3.4822552E+01  4.0326302E+01
 3.4841690E+01  4.0872372E+01
 3.4860828E+01  4.2170151E+01
 3.4879967E+01  4.4928143E+01
 3.4899105E+01  5.0627426E+01
 3.4918243E+01  6.0369869E+01
 3.4937382E+01  7.0317352E+01
 3.4956520E+01  7.4344139E+01
 3.4975658E+01  6.9747482E+01
 3.4994797E+01  5.9962723E+01
 3.5013939E+01  5.1563980E+01
 3.5033077E+01  4.6325760E+01
 3.5052216E+01  4.3363380E+01
 3.5071354E+01  4.1535172E+01
 3.5090492E+01  4.0440353E+01
 3.5109631E+01  3.9616035E+01
 3.5128769E+01  3.9024830E+01
 3.5147907E+01  3.8753654E+01
 3.5167046E+01  3.8514587E+01
 3.5186184E+01  3.8281147E+01
 3.5205322E+01  3.8057751E+01
 3.5224461E+01  3.7904816E+01
 3.5243599E+01  3.7791473E+01
 3.5262737E+01  3.7611393E+01
 3.5281876E+01  3.7487450E+01
 3.5301014E+01  3.7562778E+01
 3.5320152E+01  3.7524555E+01
 3.5339291E+01  3.7431221E+01
 3.5358429E+01  3.7325558E+01
 3.5377567E+01  3.7275608E+01
 3.5396709E+01  3.7269524E+01
 3.5415848E+01  3.7208801E+01
 3.5434986E+01  3.7268066E+01
 3.5454124E+01  3.7385185E+01
 3.5473263E+01  3.7305946E+01
 3.5492401E+01  3.7301533E+01
 3.5511539E+01  3.7522369E+01
 3.5530678E+01  3.7742920E+01
 3.5549816E+01  3.7661076E+01
 3.5568954E+01  3.7500183E+01
 3.5588093E+01  3.7377518E+01
 3.5607231E+01  3.7365089E+01
 3.5626369E+01  3.7324505E+01
 3.5645508E+01  3.7171345E+01
 3.5664646E+01  3.7153660E+01
 3.5683784E+01  3.7222492E+01
 3.5702923E+01  3.7271275E+01
 3.5722061E+01  3.7323963E+01
 3.5741199E+01  3.7208126E+01
 3.5760338E+01  3.7268585E+01
 3.5779480E+01  3.7246941E+01
 3.5798618E+01  3.7165241E+01
 3.5817757E+01  3.7081688E+01
 3.5836895E+01  3.7110474E+01
 3.5856033E+01  3.7176922E+01
 3.5875172E+01  3.7155331E+01
 3.5894310E+01  3.7107567E+01
 3.5913448E+01  3.7136280E+01
 3.5932587E+01  3.7150444E+01
 3.5951725E+01  3.7070076E+01
 3.5970863E+01  3.7102242E+01
 3.5990002E+01  3.7108898E+01
 3.6009140E+01  3.7113850E+01
 3.6028278E+01  3.7336048E+01
 3.6047417E+01  3.7301731E+01
 3.6066555E+01  3.7255692E+01
 3.6085693E+01  3.7177498E+01
 3.6104832E+01  3.7266369E+01
 3.6123970E+01  3.7445320E+01
 3.6143108E+01  3.7415924E+01
 3.6162251E+01  3.7458813E+01
 3.6181389E+01  3.7439667E+01
 3.6200527E+01  3.7456089E+01
 3.6219666E+01  3.7439182E+01
 3.6238804E+01  3.7391773E+01
 3.6257942E+01  3.7598518E+01
 3.6277081E+01  3.7665123E+01
 3.6296219E+01  3.7626926E+01
 3.6315357E+01  3.7797710E+01
 3.6334496E+01  3.7845394E+01
 3.6353634E+01  3.7794632E+01
 3.6372772E+01  3.7877548E+01
 3.6391911E+01  3.7903511E+01
 3.6411049E+01  3.7770962E+01
 3.6430187E+01  3.7626293E+01
 3.6449326E+01  3.7643158E+01
 3.6468464E+01  3.7450119E+01
 3.6487602E+01  3.7511219E+01
 3.6506741E+01  3.7615570E+01
 3.6525879E+01  3.7558823E+01
 3.6545021E+01  3.7610863E+01
 3.6564159E+01  3.7677097E+01
 3.6583298E+01  3.7537792E+01
 3.6602436E+01  3.7453712E+01
 3.6621574E+01  3.7514957E+01
 3.6640713E+01  3.7577702E+01
 3.6659851E+01  3.7656025E+01
 3.6678989E+01  3.7651886E+01
 3.6698128E+01  3.7752022E+01
 3.6717266E+01  3.7687954E+01
 3.6736404E+01  3.7664146E+01
 3.6755543E+01  3.7683590E+01
 3.6774681E+01  3.7503532E+01
 3.6793819E+01  3.7438576E+01
 3.6812958E+01  3.7530182E+01
 3.6832096E+01  3.7654152E+01
 3.6851234E+01  3.7469181E+01
 3.6870373E+01  3.7389229E+01
 3.6889511E+01  3.7379837E+01
 3.6908649E+01  3.7575306E+01
 3.6927792E+01  3.7600719E+01
 3.6946930E+01  3.7680573E+01
 3.6966068E+01  3.7778366E+01
 3.6985207E+01  3.7960384E+01
 3.7004345E+01  3.8029728E+01
 3.7023483E+01  3.8116856E+01
 3.7042622E+01  3.8048458E+01
 3.7061760E+01  3.8318890E+01
 3.7080898E+01  3.8898300E+01
 3.7100037E+01  3.9623230E+01
 3.7119175E+01  4.0475662E+01
 3.7138313E+01  4.2097958E+01
 3.7157452E+01  4.5044060E+01
 3.7176590E+01  4.9154194E+01
 3.7195728E+01  5.3470188E+01
 3.7214867E+01  5.5742458E+01
 3.7234005E+01  5.4831680E+01
 3.7253143E+01  5.1305264E+01
 3.7272282E+01  4.7169773E+01
 3.7291420E+01  4.3953125E+01
 3.7310562E+01  4.1706593E+01
 3.7329700E+01  4.0451359E+01
 3.7348839E+01  3.9679760E+01
 3.7367977E+01  3.9246994E+01
 3.7387115E+01  3.9104809E+01
 3.7406254E+01  3.8813400E+01
 3.7425392E+01  3.8616146E+01
 3.7444530E+01  3.8608635E+01
 3.7463669E+01  3.8600227E+01
 3.7482807E+01  3.8706448E+01
 3.7501945E+01  3.8711567E+01
 3.7521084E+01  3.8644447E+01
 3.7540222E+01  3.8745972E+01
 3.7559361E+01  3.8911999E+01
 3.7578499E+01  3.9028545E+01
 3.7597637E+01  3.9083282E+01
 3.7616776E+01  3.9217220E+01
 3.7635914E+01  3.9288979E+01
 3.7655052E+01  3.9407597E+01
 3.7674194E+01  3.9456417E+01
 3.7693333E+01  3.9669979E+01
 3.7712471E+01  3.9862484E+01
 3.7731609E+01  3.9770782E+01
 3.7750748E+01  3.9640697E+01
 3.7769886E+01  3.9724579E+01
 3.7789024E+01  3.9581051E+01
 3.7808163E+01  3.9368088E+01
 3.7827301E+01  3.9242626E+01
 3.7846439E+01  3.9180851E+01
 3.7865578E+01  3.9019341E+01
 3.7884716E+01  3.8831497E+01
 3.7903854E+01  3.8625343E+01
 3.7922993E+01  3.8563789E+01
 3.7942131E+01  3.8471779E+01
 3.7961269E+01  3.8218899E+01
 3.7980408E+01  3.8194481E+01
 3.7999546E+01  3.8346157E+01
 3.8018684E+01  3.8237522E+01
 3.8037823E+01  3.8062103E+01
 3.8056965E+01  3.7898098E+01
 3.8076103E+01  3.7849258E+01
 3.8095242E+01  3.7752666E+01
 3.8114380E+01  3.7902439E+01
 3.8133518E+01  3.7917187E+01
 3.8152657E+01  3.7796513E+01
 3.8171795E+01  3.7827843E+01
 3.8190933E+01  3.7877796E+01
 3.8210072E+01  3.8101807E+01
 3.8229210E+01  3.8076679E+01
 3.8248348E+01  3.8135639E+01
 3.8267487E+01  3.8332710E+01
 3.8286625E+01  3.8662617E+01
 3.8305763E+01  3.8594040E+01
 3.8324902E+01  3.8596947E+01
 3.8344040E+01  3.8716358E+01
 3.8363178E+01  3.9174744E+01
 3.8382317E+01  3.9220318E+01
 3.8401455E+01  3.9026649E+01
 3.8420593E+01  3.8706100E+01
 3.8439735E+01  3.8695625E+01
 3.8458874E+01  3.8505356E+01
 3.8478012E+01  3.8388321E+01
 3.8497150E+01  3.8212029E+01
 3.8516289E+01  3.8196266E+01
 3.8535427E+01  3.8122154E+01
 3.8554565E+01  3.8212906E+01
 3.8573704E+01  3.8122776E+01
 3.8592842E+01  3.8135521E+01
 3.8611980E+01  3.8190220E+01
 3.8631119E+01  3.8307453E+01
 3.8650257E+01  3.8390831E+01
 3.8669395E+01  3.7942726E+01
 3.8688534E+01  3.7927151E+01
 3.8707672E+01  3.7887634E+01
 3.8726810E+01  3.7775860E+01
 3.8745949E+01  3.7808655E+01
 3.8765087E+01  3.7782681E+01
 3.8784225E+01  3.7822926E+01
 3.8803364E+01  3.7701168E+01
 3.8822506E+01  3.7804691E+01
 3.8841644E+01  3.8067116E+01
 3.8860783E+01  3.7965202E+01
 3.8879921E+01  3.8061428E+01
 3.8899059E+01  3.7768154E+01
 3.8918198E+01  3.7477367E+01
 3.8937336E+01  3.7632248E+01
 3.8956474E+01  3.7859043E+01
 3.8975613E+01  3.8002804E+01
 3.8994751E+01  3.8027840E+01
 3.9013889E+01  3.7859726E+01
 3.9033028E+01  3.7717377E+01
 3.9052166E+01  3.7875870E+01
 3.9071304E+01  3.7937145E+01
 3.9090443E+01  3.8012600E+01
 3.9109581E+01  3.8129246E+01
 3.9128719E+01  3.8175823E+01
 3.9147858E+01  3.8152065E+01
 3.9166996E+01  3.8481106E+01
 3.9186134E+01  3.8341110E+01
 3.9205276E+01  3.8099659E+01
 3.9224415E+01  3.8201107E+01
 3.9243553E+01  3.8117882E+01
 3.9262691E+01  3.8060135E+01
 3.9281830E+01  3.8044716E+01
 3.9300968E+01  3.8029312E+01
 3.9320107E+01  3.7809086E+01
 3.9339245E+01  3.7644291E+01
 3.9358383E+01  3.7653854E+01
 3.9377522E+01  3.7768242E+01
 3.9396660E+01  3.7761669E+01
 3.9415798E+01  3.7989605E+01
 3.9434937E+01  3.7945515E+01
 3.9454075E+01  3.7940857E+01
 3.9473213E+01  3.7879829E+01
 3.9492352E+01  3.7964451E+01
 3.9511490E+01  3.8279068E+01
 3.9530628E+01  3.8477592E+01
 3.9549767E+01  3.8353111E+01
 3.9568905E+01  3.8223553E+01
 3.9588047E+01  3.7997818E+01
 3.9607185E+01  3.8073017E+01
 3.9626324E+01  3.7984116E+01
 3.9645462E+01  3.7980297E+01
 3.9664600E+01  3.8149998E+01
 3.9683739E+01  3.8089500E+01
 3.9702877E+01  3.7635311E+01
 3.9722015E+01  3.7655853E+01
 3.9741154E+01  3.8063671E+01
 3.9760292E+01  3.8330147E+01
 3.9779430E+01  3.8283588E+01
 3.9798569E+01  3.8440834E+01
 3.9817707E+01  3.8646648E+01
 3.9836845E+01  3.8639946E+01
 3.9855984E+01  3.8914974E+01
 3.9875122E+01  3.8907135E+01
 3.9894260E+01  3.8443890E+01
 3.9913399E+01  3.8877903E+01
 3.9932537E+01  3.8791080E+01
 3.9951675E+01  3.8455109E+01
 3.9970818E+01  3.8488678E+01
 3.9989956E+01  3.8436264E+01
 4.0009094E+01  3.8364357E+01
 4.0028233E+01  3.8309418E+01
 4.0047371E+01  3.8506744E+01
 4.0066509E+01  3.8541458E+01
 4.0085648E+01  3.8454304E+01
 4.0104786E+01  3.7999096E+01
 4.0123924E+01  3.7919193E+01
 4.0143063E+01  3.8071587E+01
 4.0162201E+01  3.8255154E+01
 4.0181339E+01  3.8457390E+01
 4.0200478E+01  3.8267368E+01
 4.0219616E+01  3.8283638E+01
 4.0238754E+01  3.8233055E+01
 4.0257893E+01  3.8608025E+01
 4.0277031E+01  3.8931751E+01
 4.0296169E+01  3.9436275E+01
 4.0315308E+01  3.9924549E+01
 4.0334446E+01  4.0640015E+01
 4.0353588E+01  4.1548546E+01
 4.0372726E+01  4.1263969E+01
 4.0391865E+01  4.0811935E+01
 4.0411003E+01  4.0318642E+01
 4.0430141E+01  3.9881008E+01
 4.0449280E+01  3.9068008E+01
 4.0468418E+01  3.8864433E+01
 4.0487556E+01  3.8639111E+01
 4.0506695E+01  3.8809906E+01
 4.0525833E+01  3.8650127E+01
 4.0544971E+01  3.8313923E+01
 4.0564110E+01  3.8102547E+01
 4.0583248E+01  3.7988350E+01
 4.0602386E+01  3.8346050E+01
 4.0621525E+01  3.8767586E+01
 4.0640663E+01  3.8705502E+01
 4.0659801E+01  3.8702049E+01
 4.0678940E+01  3.8888248E+01
 4.0698078E+01  3.8929497E+01
 4.0717216E+01  3.8544403E+01
 4.0736359E+01  3.8771301E+01
 4.0755497E+01  3.8466961E+01
 4.0774635E+01  3.8760647E+01
 4.0793774E+01  3.8676620E+01
 4.0812912E+01  3.8593700E+01
 4.0832050E+01  3.8371872E+01
 4.0851189E+01  3.8573975E+01
 4.0870327E+01  3.8920063E+01
 4.0889465E+01  3.8529575E+01
 4.0908604E+01  3.8613815E+01
 4.0927742E+01  3.8678802E+01
 4.0946880E+01  3.8738621E+01
 4.0966019E+01  3.8413673E+01
 4.0985157E+01  3.8312485E+01
 4.1004295E+01  3.8760246E+01
 4.1023434E+01  3.8794365E+01
 4.1042572E+01  3.8246780E+01
 4.1061710E+01  3.8182045E+01
 4.1080849E+01  3.8453308E+01
 4.1099991E+01  3.8433643E+01
 4.1119129E+01  3.8730206E+01
 4.1138268E+01  3.8203003E+01
 4.1157406E+01  3.8164852E+01
 4.1176544E+01  3.8448803E+01
 4.1195683E+01  3.7671360E+01
 4.1214821E+01  3.7492378E+01
 4.1233959E+01  3.7415813E+01
 4.1253098E+01  3.7392117E+01
 4.1272236E+01  3.7036781E+01
 4.1291374E+01  3.7696980E+01
 4.1310513E+01  3.7602013E+01
 4.1329651E+01  3.7666569E+01
 4.1348789E+01  3.7543400E+01
 4.1367928E+01  3.7539883E+01
 4.1387066E+01  3.7610100E+01
 4.1406204E+01  3.7240334E+01
 4.1425343E+01  3.7508644E+01
 4.1444481E+01  3.7368797E+01
 4.1463619E+01  3.6766190E+01
 4.1482761E+01  3.6412251E+01
 4.1501900E+01  3.6063614E+01
 4.1521038E+01  3.5884739E+01
 4.1540176E+01  3.5629108E+01
 4.1559315E+01  3.6377842E+01
 4.1578453E+01  3.6380077E+01
 4.1597591E+01  3.6288033E+01
 4.1616730E+01  3.4042473E+01
 4.1635868E+01  3.4015903E+01
 4.1655006E+01  3.4966976E+01
 4.1674145E+01  3.3563610E+01
 4.1693283E+01  3.4560581E+01
 4.1712421E+01  3.3674309E+01
 4.1731560E+01  3.3563206E+01
 4.1750698E+01  3.2072266E+01
 4.1769836E+01  3.0301926E+01
 4.1788975E+01  2.9686247E+01
 4.1808113E+01  2.5298450E+01
 4.1827251E+01  2.5869116E+01
 4.1846390E+01  2.6273333E+01
 4.1865532E+01  0.0000000E+00
 4.1884670E+01  0.0000000E+00
 4.1903809E+01  0.0000000E+00
 4.1922947E+01  0.0000000E+00
