S:\2014_06\marccd\Jun14_01276.mccd: Q-Space Scan
Q (Inverse Nanometres)
Intensity
       2191
 9.5692640E-03  0.0000000E+00
 2.8707791E-02  0.0000000E+00
 4.7846321E-02  0.0000000E+00
 6.6984847E-02  0.0000000E+00
 8.6123377E-02  0.0000000E+00
 1.0526191E-01  0.0000000E+00
 1.2440043E-01  0.0000000E+00
 1.4353897E-01  0.0000000E+00
 1.6267748E-01  0.0000000E+00
 1.8181601E-01  0.0000000E+00
 2.0095454E-01  0.0000000E+00
 2.2009307E-01  0.0000000E+00
 2.3923160E-01  0.0000000E+00
 2.5837013E-01  0.0000000E+00
 2.7750865E-01  0.0000000E+00
 2.9664719E-01  0.0000000E+00
 3.1578571E-01  0.0000000E+00
 3.3492425E-01  0.0000000E+00
 3.5406277E-01  0.0000000E+00
 3.7320131E-01  0.0000000E+00
 3.9233983E-01  0.0000000E+00
 4.1147834E-01  0.0000000E+00
 4.3061689E-01  0.0000000E+00
 4.4975540E-01  0.0000000E+00
 4.6889395E-01  0.0000000E+00
 4.8803246E-01  0.0000000E+00
 5.0717098E-01  0.0000000E+00
 5.2630955E-01  0.0000000E+00
 5.4544806E-01  0.0000000E+00
 5.6458658E-01  0.0000000E+00
 5.8372509E-01  0.0000000E+00
 6.0286361E-01  0.0000000E+00
 6.2200218E-01  0.0000000E+00
 6.4114070E-01  0.0000000E+00
 6.6027921E-01  0.0000000E+00
 6.7941773E-01  0.0000000E+00
 6.9855624E-01  0.0000000E+00
 7.1769482E-01  0.0000000E+00
 7.3683333E-01  0.0000000E+00
 7.5597185E-01  0.0000000E+00
 7.7511036E-01  0.0000000E+00
 7.9424894E-01  0.0000000E+00
 8.1338745E-01  0.0000000E+00
 8.3252597E-01  0.0000000E+00
 8.5166448E-01  0.0000000E+00
 8.7080300E-01  0.0000000E+00
 8.8994157E-01  0.0000000E+00
 9.0908009E-01  0.0000000E+00
 9.2821860E-01  0.0000000E+00
 9.4735712E-01  0.0000000E+00
 9.6649569E-01  0.0000000E+00
 9.8563421E-01  0.0000000E+00
 1.0047727E+00  0.0000000E+00
 1.0239112E+00  0.0000000E+00
 1.0430498E+00  0.0000000E+00
 1.0621883E+00  0.0000000E+00
 1.0813268E+00  0.0000000E+00
 1.1004654E+00  0.0000000E+00
 1.1196039E+00  0.0000000E+00
 1.1387424E+00  0.0000000E+00
 1.1578809E+00  0.0000000E+00
 1.1770195E+00  0.0000000E+00
 1.1961581E+00  0.0000000E+00
 1.2152965E+00  0.0000000E+00
 1.2344351E+00  0.0000000E+00
 1.2535735E+00  0.0000000E+00
 1.2727121E+00  0.0000000E+00
 1.2918507E+00  0.0000000E+00
 1.3109891E+00  0.0000000E+00
 1.3301277E+00  0.0000000E+00
 1.3492662E+00  0.0000000E+00
 1.3684047E+00  0.0000000E+00
 1.3875433E+00  0.0000000E+00
 1.4066818E+00  0.0000000E+00
 1.4258204E+00  0.0000000E+00
 1.4449589E+00  0.0000000E+00
 1.4640974E+00  1.8298723E+02
 1.4832360E+00  1.7774387E+02
 1.5023744E+00  1.7289941E+02
 1.5215130E+00  1.6727397E+02
 1.5406516E+00  1.6147444E+02
 1.5597900E+00  1.5487134E+02
 1.5789286E+00  1.5037668E+02
 1.5980670E+00  1.4669240E+02
 1.6172056E+00  1.4180511E+02
 1.6363442E+00  1.3669397E+02
 1.6554826E+00  1.3150822E+02
 1.6746212E+00  1.2721642E+02
 1.6937597E+00  1.2362785E+02
 1.7128983E+00  1.1931472E+02
 1.7320368E+00  1.1581155E+02
 1.7511753E+00  1.1271478E+02
 1.7703139E+00  1.0914355E+02
 1.7894523E+00  1.0562904E+02
 1.8085909E+00  1.0246180E+02
 1.8277295E+00  1.0019846E+02
 1.8468679E+00  9.8347832E+01
 1.8660065E+00  9.6416763E+01
 1.8851451E+00  9.3647018E+01
 1.9042835E+00  9.0961899E+01
 1.9234221E+00  8.8828056E+01
 1.9425606E+00  8.6822624E+01
 1.9616991E+00  8.4905228E+01
 1.9808377E+00  8.2903664E+01
 1.9999762E+00  8.0932381E+01
 2.0191147E+00  7.9291496E+01
 2.0382533E+00  7.7802124E+01
 2.0573919E+00  7.6302147E+01
 2.0765302E+00  7.4863731E+01
 2.0956688E+00  7.3442490E+01
 2.1148074E+00  7.2228760E+01
 2.1339459E+00  7.1274338E+01
 2.1530845E+00  6.9975128E+01
 2.1722229E+00  6.8611427E+01
 2.1913614E+00  6.7455376E+01
 2.2105000E+00  6.6557106E+01
 2.2296386E+00  6.5541656E+01
 2.2487772E+00  6.4590424E+01
 2.2679155E+00  6.3752724E+01
 2.2870541E+00  6.3054096E+01
 2.3061926E+00  6.2242485E+01
 2.3253312E+00  6.1273788E+01
 2.3444698E+00  6.0161411E+01
 2.3636081E+00  5.9391663E+01
 2.3827467E+00  5.8922218E+01
 2.4018853E+00  5.8038239E+01
 2.4210238E+00  5.7265781E+01
 2.4401624E+00  5.6673817E+01
 2.4593008E+00  5.6021370E+01
 2.4784393E+00  5.5544434E+01
 2.4975779E+00  5.5009270E+01
 2.5167165E+00  5.4431786E+01
 2.5358551E+00  5.3808399E+01
 2.5549934E+00  5.3162647E+01
 2.5741320E+00  5.2662300E+01
 2.5932705E+00  5.2278526E+01
 2.6124091E+00  5.2061226E+01
 2.6315477E+00  5.1478920E+01
 2.6506860E+00  5.1048286E+01
 2.6698246E+00  5.0767654E+01
 2.6889632E+00  5.0438751E+01
 2.7081017E+00  4.9836510E+01
 2.7272403E+00  4.9305340E+01
 2.7463787E+00  4.9041470E+01
 2.7655172E+00  4.8816704E+01
 2.7846558E+00  4.8692879E+01
 2.8037944E+00  4.8373383E+01
 2.8229330E+00  4.8084610E+01
 2.8420713E+00  4.7707825E+01
 2.8612099E+00  4.7222336E+01
 2.8803484E+00  4.6937515E+01
 2.8994870E+00  4.6734722E+01
 2.9186256E+00  4.6441311E+01
 2.9377642E+00  4.6158810E+01
 2.9569025E+00  4.5703423E+01
 2.9760411E+00  4.5445732E+01
 2.9951797E+00  4.5358227E+01
 3.0143182E+00  4.5286884E+01
 3.0334568E+00  4.5037312E+01
 3.0525951E+00  4.4686958E+01
 3.0717337E+00  4.4346535E+01
 3.0908723E+00  4.4131023E+01
 3.1100109E+00  4.4037201E+01
 3.1291494E+00  4.3996788E+01
 3.1482878E+00  4.3690002E+01
 3.1674263E+00  4.3352104E+01
 3.1865649E+00  4.3085159E+01
 3.2057035E+00  4.2998707E+01
 3.2248421E+00  4.2940495E+01
 3.2439804E+00  4.2808712E+01
 3.2631190E+00  4.2563763E+01
 3.2822576E+00  4.2307846E+01
 3.3013961E+00  4.2113029E+01
 3.3205347E+00  4.2041653E+01
 3.3396730E+00  4.2019302E+01
 3.3588116E+00  4.1956020E+01
 3.3779502E+00  4.1669823E+01
 3.3970888E+00  4.1421505E+01
 3.4162273E+00  4.1416557E+01
 3.4353657E+00  4.1391609E+01
 3.4545043E+00  4.1264278E+01
 3.4736428E+00  4.1044289E+01
 3.4927814E+00  4.0953072E+01
 3.5119200E+00  4.0982300E+01
 3.5310583E+00  4.0904686E+01
 3.5501969E+00  4.0824280E+01
 3.5693355E+00  4.0726517E+01
 3.5884740E+00  4.0615730E+01
 3.6076126E+00  4.0401119E+01
 3.6267509E+00  4.0297562E+01
 3.6458895E+00  4.0164295E+01
 3.6650281E+00  4.0164082E+01
 3.6841667E+00  4.0161354E+01
 3.7033052E+00  4.0108620E+01
 3.7224438E+00  4.0023659E+01
 3.7415822E+00  3.9815289E+01
 3.7607207E+00  3.9775478E+01
 3.7798593E+00  3.9842190E+01
 3.7989979E+00  3.9789059E+01
 3.8181365E+00  3.9669006E+01
 3.8372748E+00  3.9612106E+01
 3.8564134E+00  3.9474148E+01
 3.8755519E+00  3.9347382E+01
 3.8946905E+00  3.9299603E+01
 3.9138291E+00  3.9328201E+01
 3.9329674E+00  3.9249340E+01
 3.9521060E+00  3.9083424E+01
 3.9712446E+00  3.8997597E+01
 3.9903831E+00  3.9007221E+01
 4.0095215E+00  3.8851559E+01
 4.0286603E+00  3.8822208E+01
 4.0477986E+00  3.8831879E+01
 4.0669370E+00  3.8751003E+01
 4.0860758E+00  3.8847851E+01
 4.1052141E+00  3.8965591E+01
 4.1243529E+00  3.8891022E+01
 4.1434913E+00  3.8773666E+01
 4.1626301E+00  3.8737213E+01
 4.1817684E+00  3.8776936E+01
 4.2009068E+00  3.8691944E+01
 4.2200456E+00  3.8534641E+01
 4.2391839E+00  3.8596336E+01
 4.2583227E+00  3.8601105E+01
 4.2774611E+00  3.8514416E+01
 4.2965994E+00  3.8506252E+01
 4.3157382E+00  3.8582573E+01
 4.3348765E+00  3.8547691E+01
 4.3540154E+00  3.8478367E+01
 4.3731537E+00  3.8376740E+01
 4.3922920E+00  3.8425194E+01
 4.4114308E+00  3.8403824E+01
 4.4305692E+00  3.8321877E+01
 4.4497080E+00  3.8414337E+01
 4.4688463E+00  3.8462715E+01
 4.4879847E+00  3.8468384E+01
 4.5071235E+00  3.8546486E+01
 4.5262618E+00  3.8521049E+01
 4.5454006E+00  3.8478546E+01
 4.5645390E+00  3.8621811E+01
 4.5836773E+00  3.8599018E+01
 4.6028161E+00  3.8558201E+01
 4.6219544E+00  3.8514820E+01
 4.6410933E+00  3.8568439E+01
 4.6602316E+00  3.8680313E+01
 4.6793699E+00  3.8688728E+01
 4.6985087E+00  3.8715569E+01
 4.7176471E+00  3.8832737E+01
 4.7367859E+00  3.8759483E+01
 4.7559242E+00  3.8646381E+01
 4.7750626E+00  3.8731800E+01
 4.7942014E+00  3.8917469E+01
 4.8133397E+00  3.9005157E+01
 4.8324785E+00  3.8888702E+01
 4.8516169E+00  3.8924873E+01
 4.8707552E+00  3.9083912E+01
 4.8898940E+00  3.9160976E+01
 4.9090323E+00  3.9197498E+01
 4.9281712E+00  3.9241928E+01
 4.9473095E+00  3.9223465E+01
 4.9664478E+00  3.9268764E+01
 4.9855866E+00  3.9311935E+01
 5.0047250E+00  3.9327061E+01
 5.0238638E+00  3.9393574E+01
 5.0430021E+00  3.9453968E+01
 5.0621405E+00  3.9531624E+01
 5.0812793E+00  3.9529179E+01
 5.1004176E+00  3.9558723E+01
 5.1195564E+00  3.9704994E+01
 5.1386948E+00  3.9738194E+01
 5.1578331E+00  3.9730488E+01
 5.1769719E+00  3.9783901E+01
 5.1961102E+00  3.9827454E+01
 5.2152491E+00  3.9911068E+01
 5.2343874E+00  3.9938530E+01
 5.2535257E+00  4.0054291E+01
 5.2726645E+00  4.0226677E+01
 5.2918029E+00  4.0348259E+01
 5.3109417E+00  4.0463905E+01
 5.3300800E+00  4.0563492E+01
 5.3492184E+00  4.0618336E+01
 5.3683572E+00  4.0587940E+01
 5.3874955E+00  4.0653263E+01
 5.4066343E+00  4.0799534E+01
 5.4257727E+00  4.1051704E+01
 5.4449110E+00  4.1150635E+01
 5.4640498E+00  4.1216164E+01
 5.4831882E+00  4.1325451E+01
 5.5023270E+00  4.1383148E+01
 5.5214653E+00  4.1417534E+01
 5.5406036E+00  4.1628517E+01
 5.5597425E+00  4.1783745E+01
 5.5788808E+00  4.1804962E+01
 5.5980196E+00  4.1816669E+01
 5.6171579E+00  4.1922417E+01
 5.6362963E+00  4.2046494E+01
 5.6554351E+00  4.2183079E+01
 5.6745734E+00  4.2377792E+01
 5.6937122E+00  4.2385582E+01
 5.7128506E+00  4.2453979E+01
 5.7319894E+00  4.2664112E+01
 5.7511277E+00  4.2701168E+01
 5.7702661E+00  4.2792629E+01
 5.7894049E+00  4.2977001E+01
 5.8085432E+00  4.3045391E+01
 5.8276820E+00  4.3113941E+01
 5.8468204E+00  4.3140408E+01
 5.8659587E+00  4.3219242E+01
 5.8850975E+00  4.3316135E+01
 5.9042358E+00  4.3543335E+01
 5.9233747E+00  4.3695293E+01
 5.9425130E+00  4.3812012E+01
 5.9616513E+00  4.3993927E+01
 5.9807901E+00  4.4189266E+01
 5.9999285E+00  4.4236309E+01
 6.0190673E+00  4.4216278E+01
 6.0382056E+00  4.4344154E+01
 6.0573440E+00  4.4407974E+01
 6.0764828E+00  4.4524616E+01
 6.0956211E+00  4.4756706E+01
 6.1147599E+00  4.4848717E+01
 6.1338983E+00  4.4832722E+01
 6.1530366E+00  4.4967155E+01
 6.1721754E+00  4.5089005E+01
 6.1913137E+00  4.5172939E+01
 6.2104526E+00  4.5343136E+01
 6.2295909E+00  4.5558609E+01
 6.2487292E+00  4.5809185E+01
 6.2678680E+00  4.5936543E+01
 6.2870064E+00  4.5958572E+01
 6.3061452E+00  4.6118114E+01
 6.3252835E+00  4.6194035E+01
 6.3444219E+00  4.6321136E+01
 6.3635607E+00  4.6507751E+01
 6.3826990E+00  4.6781170E+01
 6.4018378E+00  4.6977203E+01
 6.4209762E+00  4.7098465E+01
 6.4401145E+00  4.7146431E+01
 6.4592533E+00  4.7154316E+01
 6.4783916E+00  4.7263508E+01
 6.4975305E+00  4.7438904E+01
 6.5166688E+00  4.7660954E+01
 6.5358071E+00  4.7875355E+01
 6.5549459E+00  4.7975483E+01
 6.5740843E+00  4.8111233E+01
 6.5932231E+00  4.8191086E+01
 6.6123614E+00  4.8329948E+01
 6.6314998E+00  4.8676594E+01
 6.6506386E+00  4.8901733E+01
 6.6697769E+00  4.8923355E+01
 6.6889157E+00  4.8933643E+01
 6.7080541E+00  4.9082390E+01
 6.7271924E+00  4.9318184E+01
 6.7463312E+00  4.9421761E+01
 6.7654696E+00  4.9582237E+01
 6.7846084E+00  4.9777035E+01
 6.8037467E+00  5.0013504E+01
 6.8228850E+00  5.0198009E+01
 6.8420238E+00  5.0218769E+01
 6.8611622E+00  5.0429272E+01
 6.8803010E+00  5.0743446E+01
 6.8994393E+00  5.1030460E+01
 6.9185777E+00  5.1254833E+01
 6.9377165E+00  5.1491154E+01
 6.9568548E+00  5.1602566E+01
 6.9759936E+00  5.1725521E+01
 6.9951320E+00  5.1970909E+01
 7.0142703E+00  5.2271297E+01
 7.0334091E+00  5.2574608E+01
 7.0525475E+00  5.2757191E+01
 7.0716863E+00  5.2967812E+01
 7.0908246E+00  5.3194595E+01
 7.1099629E+00  5.3441750E+01
 7.1291018E+00  5.3680550E+01
 7.1482401E+00  5.3981377E+01
 7.1673789E+00  5.4364113E+01
 7.1865172E+00  5.4568871E+01
 7.2056556E+00  5.4665840E+01
 7.2247944E+00  5.4798382E+01
 7.2439327E+00  5.4999203E+01
 7.2630715E+00  5.5330471E+01
 7.2822099E+00  5.5599689E+01
 7.3013482E+00  5.5893848E+01
 7.3204870E+00  5.6177444E+01
 7.3396254E+00  5.6360321E+01
 7.3587642E+00  5.6529526E+01
 7.3779025E+00  5.6833775E+01
 7.3970413E+00  5.7072498E+01
 7.4161797E+00  5.7458595E+01
 7.4353180E+00  5.7925842E+01
 7.4544568E+00  5.8154446E+01
 7.4735951E+00  5.8286430E+01
 7.4927340E+00  5.8596413E+01
 7.5118723E+00  5.9062138E+01
 7.5310106E+00  5.9405651E+01
 7.5501494E+00  5.9711792E+01
 7.5692878E+00  6.0112129E+01
 7.5884266E+00  6.0443684E+01
 7.6075649E+00  6.0736347E+01
 7.6267033E+00  6.1134754E+01
 7.6458421E+00  6.1549976E+01
 7.6649804E+00  6.2022156E+01
 7.6841192E+00  6.2295410E+01
 7.7032576E+00  6.2595837E+01
 7.7223959E+00  6.2770233E+01
 7.7415347E+00  6.2989143E+01
 7.7606730E+00  6.3327297E+01
 7.7798119E+00  6.3677082E+01
 7.7989502E+00  6.3964371E+01
 7.8180885E+00  6.4416397E+01
 7.8372273E+00  6.4792206E+01
 7.8563657E+00  6.5129471E+01
 7.8755045E+00  6.5645531E+01
 7.8946428E+00  6.6169128E+01
 7.9137812E+00  6.6689888E+01
 7.9329200E+00  6.7213959E+01
 7.9520583E+00  6.7687004E+01
 7.9711971E+00  6.8403008E+01
 7.9903355E+00  6.9038208E+01
 8.0094738E+00  6.9487167E+01
 8.0286121E+00  7.0059013E+01
 8.0477514E+00  7.0601227E+01
 8.0668898E+00  7.1079330E+01
 8.0860281E+00  7.1357803E+01
 8.1051664E+00  7.1612999E+01
 8.1243048E+00  7.2038551E+01
 8.1434441E+00  7.2505707E+01
 8.1625824E+00  7.2940285E+01
 8.1817207E+00  7.3517998E+01
 8.2008591E+00  7.4236679E+01
 8.2199974E+00  7.5053848E+01
 8.2391367E+00  7.6254448E+01
 8.2582750E+00  7.7937416E+01
 8.2774134E+00  7.9184441E+01
 8.2965517E+00  7.8888184E+01
 8.3156900E+00  7.7549232E+01
 8.3348293E+00  7.6355705E+01
 8.3539677E+00  7.5734634E+01
 8.3731060E+00  7.5411377E+01
 8.3922443E+00  7.5368515E+01
 8.4113827E+00  7.5647629E+01
 8.4305220E+00  7.5788025E+01
 8.4496603E+00  7.6015831E+01
 8.4687986E+00  7.6395943E+01
 8.4879370E+00  7.6775139E+01
 8.5070753E+00  7.7159172E+01
 8.5262146E+00  7.7578934E+01
 8.5453529E+00  7.8185081E+01
 8.5644913E+00  7.8884064E+01
 8.5836296E+00  7.9533508E+01
 8.6027679E+00  7.9949974E+01
 8.6219072E+00  8.0192001E+01
 8.6410456E+00  8.0284843E+01
 8.6601839E+00  8.0196190E+01
 8.6793222E+00  8.0229553E+01
 8.6984606E+00  8.0445000E+01
 8.7175999E+00  8.0633202E+01
 8.7367382E+00  8.0904869E+01
 8.7558765E+00  8.1235565E+01
 8.7750149E+00  8.1532845E+01
 8.7941532E+00  8.1902260E+01
 8.8132925E+00  8.2266907E+01
 8.8324308E+00  8.2496140E+01
 8.8515692E+00  8.2826393E+01
 8.8707075E+00  8.3127625E+01
 8.8898458E+00  8.3234154E+01
 8.9089851E+00  8.3359634E+01
 8.9281235E+00  8.3589249E+01
 8.9472618E+00  8.4014076E+01
 8.9664001E+00  8.4446983E+01
 8.9855385E+00  8.4658325E+01
 9.0046778E+00  8.4722382E+01
 9.0238161E+00  8.4779854E+01
 9.0429544E+00  8.4962288E+01
 9.0620928E+00  8.5287338E+01
 9.0812311E+00  8.5542191E+01
 9.1003704E+00  8.5843811E+01
 9.1195087E+00  8.6051056E+01
 9.1386471E+00  8.6294785E+01
 9.1577854E+00  8.6518753E+01
 9.1769238E+00  8.6716255E+01
 9.1960630E+00  8.6887924E+01
 9.2152014E+00  8.7062500E+01
 9.2343397E+00  8.7047005E+01
 9.2534781E+00  8.6984047E+01
 9.2726164E+00  8.7009018E+01
 9.2917557E+00  8.7186218E+01
 9.3108940E+00  8.7302124E+01
 9.3300323E+00  8.7388161E+01
 9.3491707E+00  8.7438454E+01
 9.3683090E+00  8.7406868E+01
 9.3874483E+00  8.7446480E+01
 9.4065866E+00  8.7635887E+01
 9.4257250E+00  8.7850494E+01
 9.4448633E+00  8.7956879E+01
 9.4640017E+00  8.7869263E+01
 9.4831409E+00  8.7810997E+01
 9.5022793E+00  8.7736496E+01
 9.5214176E+00  8.7689293E+01
 9.5405560E+00  8.7800873E+01
 9.5596943E+00  8.7916756E+01
 9.5788336E+00  8.7878937E+01
 9.5979719E+00  8.7901062E+01
 9.6171103E+00  8.7904419E+01
 9.6362486E+00  8.7862282E+01
 9.6553869E+00  8.7672844E+01
 9.6745262E+00  8.7543312E+01
 9.6936646E+00  8.7554726E+01
 9.7128029E+00  8.7512917E+01
 9.7319412E+00  8.7418015E+01
 9.7510796E+00  8.7264732E+01
 9.7702188E+00  8.7167427E+01
 9.7893572E+00  8.7195724E+01
 9.8084955E+00  8.7267662E+01
 9.8276339E+00  8.7184311E+01
 9.8467731E+00  8.6991028E+01
 9.8659115E+00  8.6721367E+01
 9.8850498E+00  8.6493584E+01
 9.9041882E+00  8.6433678E+01
 9.9233265E+00  8.6340569E+01
 9.9424658E+00  8.6304207E+01
 9.9616041E+00  8.6164680E+01
 9.9807425E+00  8.6013237E+01
 9.9998808E+00  8.5812515E+01
 1.0019019E+01  8.5664101E+01
 1.0038158E+01  8.5479553E+01
 1.0057297E+01  8.5338081E+01
 1.0076435E+01  8.5224724E+01
 1.0095573E+01  8.5136581E+01
 1.0114712E+01  8.4999176E+01
 1.0133851E+01  8.4730972E+01
 1.0152989E+01  8.4527405E+01
 1.0172128E+01  8.4406075E+01
 1.0191266E+01  8.4371872E+01
 1.0210404E+01  8.4283791E+01
 1.0229544E+01  8.4018166E+01
 1.0248682E+01  8.3766289E+01
 1.0267820E+01  8.3607513E+01
 1.0286959E+01  8.3513336E+01
 1.0306097E+01  8.3387306E+01
 1.0325236E+01  8.3144348E+01
 1.0344375E+01  8.2850815E+01
 1.0363513E+01  8.2722855E+01
 1.0382651E+01  8.2513962E+01
 1.0401790E+01  8.2325623E+01
 1.0420929E+01  8.2183876E+01
 1.0440067E+01  8.1939430E+01
 1.0459206E+01  8.1797714E+01
 1.0478344E+01  8.1743347E+01
 1.0497482E+01  8.1648178E+01
 1.0516622E+01  8.1491623E+01
 1.0535760E+01  8.1176865E+01
 1.0554898E+01  8.0926949E+01
 1.0574037E+01  8.0782471E+01
 1.0593175E+01  8.0574425E+01
 1.0612314E+01  8.0314255E+01
 1.0631453E+01  8.0039101E+01
 1.0650591E+01  7.9885147E+01
 1.0669729E+01  7.9745331E+01
 1.0688868E+01  7.9546143E+01
 1.0708007E+01  7.9371277E+01
 1.0727145E+01  7.9144569E+01
 1.0746284E+01  7.8923820E+01
 1.0765422E+01  7.8676323E+01
 1.0784560E+01  7.8347061E+01
 1.0803699E+01  7.8171715E+01
 1.0822838E+01  7.8064613E+01
 1.0841976E+01  7.7816719E+01
 1.0861115E+01  7.7512268E+01
 1.0880253E+01  7.7357452E+01
 1.0899392E+01  7.7158714E+01
 1.0918530E+01  7.6929054E+01
 1.0937669E+01  7.6839401E+01
 1.0956807E+01  7.6602737E+01
 1.0975945E+01  7.6426506E+01
 1.0995085E+01  7.6425873E+01
 1.1014223E+01  7.6227844E+01
 1.1033361E+01  7.6028511E+01
 1.1052500E+01  7.5863548E+01
 1.1071638E+01  7.5646759E+01
 1.1090777E+01  7.5475525E+01
 1.1109916E+01  7.5127190E+01
 1.1129054E+01  7.4896111E+01
 1.1148192E+01  7.4828117E+01
 1.1167331E+01  7.4731216E+01
 1.1186470E+01  7.4412399E+01
 1.1205608E+01  7.4157700E+01
 1.1224747E+01  7.3890388E+01
 1.1243885E+01  7.3746727E+01
 1.1263023E+01  7.3446053E+01
 1.1282163E+01  7.3374466E+01
 1.1301301E+01  7.3213478E+01
 1.1320439E+01  7.3050209E+01
 1.1339578E+01  7.2899666E+01
 1.1358716E+01  7.2675995E+01
 1.1377855E+01  7.2365486E+01
 1.1396994E+01  7.2197914E+01
 1.1416132E+01  7.2058823E+01
 1.1435270E+01  7.1772766E+01
 1.1454409E+01  7.1595512E+01
 1.1473548E+01  7.1481598E+01
 1.1492686E+01  7.1283607E+01
 1.1511825E+01  7.1105339E+01
 1.1530963E+01  7.0943069E+01
 1.1550101E+01  7.0763969E+01
 1.1569241E+01  7.0485252E+01
 1.1588379E+01  7.0179840E+01
 1.1607517E+01  7.0028000E+01
 1.1626656E+01  6.9874413E+01
 1.1645794E+01  6.9669083E+01
 1.1664933E+01  6.9514885E+01
 1.1684072E+01  6.9250618E+01
 1.1703210E+01  6.9040627E+01
 1.1722348E+01  6.8847435E+01
 1.1741487E+01  6.8621017E+01
 1.1760626E+01  6.8426727E+01
 1.1779764E+01  6.8158569E+01
 1.1798903E+01  6.8063797E+01
 1.1818041E+01  6.7922432E+01
 1.1837179E+01  6.7622353E+01
 1.1856318E+01  6.7475739E+01
 1.1875457E+01  6.7333374E+01
 1.1894595E+01  6.7191299E+01
 1.1913733E+01  6.7072891E+01
 1.1932872E+01  6.6808846E+01
 1.1952011E+01  6.6594215E+01
 1.1971149E+01  6.6334114E+01
 1.1990288E+01  6.6089943E+01
 1.2009426E+01  6.6015816E+01
 1.2028564E+01  6.5839218E+01
 1.2047704E+01  6.5554321E+01
 1.2066842E+01  6.5537582E+01
 1.2085980E+01  6.5424980E+01
 1.2105119E+01  6.5187637E+01
 1.2124257E+01  6.4961792E+01
 1.2143396E+01  6.4870209E+01
 1.2162535E+01  6.4744492E+01
 1.2181673E+01  6.4570412E+01
 1.2200811E+01  6.4548538E+01
 1.2219950E+01  6.4464012E+01
 1.2239089E+01  6.4431213E+01
 1.2258227E+01  6.4388840E+01
 1.2277366E+01  6.4453041E+01
 1.2296504E+01  6.4576431E+01
 1.2315642E+01  6.4597374E+01
 1.2334782E+01  6.4594315E+01
 1.2353920E+01  6.4385391E+01
 1.2373058E+01  6.4048363E+01
 1.2392197E+01  6.3705189E+01
 1.2411335E+01  6.3384182E+01
 1.2430474E+01  6.3230343E+01
 1.2449613E+01  6.3050545E+01
 1.2468751E+01  6.2809185E+01
 1.2487889E+01  6.2659687E+01
 1.2507028E+01  6.2567604E+01
 1.2526167E+01  6.2524502E+01
 1.2545305E+01  6.2643192E+01
 1.2564444E+01  6.2886555E+01
 1.2583582E+01  6.3177647E+01
 1.2602720E+01  6.3501316E+01
 1.2621860E+01  6.4114624E+01
 1.2640998E+01  6.5193146E+01
 1.2660136E+01  6.7156555E+01
 1.2679275E+01  7.1032578E+01
 1.2698413E+01  7.9402763E+01
 1.2717552E+01  9.5771393E+01
 1.2736691E+01  1.1981477E+02
 1.2755829E+01  1.4039886E+02
 1.2774967E+01  1.4058293E+02
 1.2794106E+01  1.1840040E+02
 1.2813245E+01  9.2210129E+01
 1.2832383E+01  7.5637276E+01
 1.2851521E+01  6.7892441E+01
 1.2870660E+01  6.4352043E+01
 1.2889798E+01  6.2344238E+01
 1.2908937E+01  6.1047558E+01
 1.2928076E+01  6.0068104E+01
 1.2947214E+01  5.9384720E+01
 1.2966352E+01  5.8860546E+01
 1.2985491E+01  5.8396870E+01
 1.3004630E+01  5.7932358E+01
 1.3023768E+01  5.7667774E+01
 1.3042907E+01  5.7314030E+01
 1.3062045E+01  5.6861946E+01
 1.3081184E+01  5.6474007E+01
 1.3100323E+01  5.6184933E+01
 1.3119461E+01  5.6038277E+01
 1.3138599E+01  5.5879745E+01
 1.3157738E+01  5.5620094E+01
 1.3176877E+01  5.5472984E+01
 1.3196015E+01  5.5230804E+01
 1.3215154E+01  5.4957970E+01
 1.3234292E+01  5.4733730E+01
 1.3253430E+01  5.4488125E+01
 1.3272570E+01  5.4276218E+01
 1.3291708E+01  5.4039623E+01
 1.3310846E+01  5.3818291E+01
 1.3329985E+01  5.3577599E+01
 1.3349123E+01  5.3357449E+01
 1.3368262E+01  5.3136826E+01
 1.3387401E+01  5.2976959E+01
 1.3406539E+01  5.2940189E+01
 1.3425677E+01  5.2834343E+01
 1.3444816E+01  5.2713657E+01
 1.3463955E+01  5.2669483E+01
 1.3483093E+01  5.2585602E+01
 1.3502232E+01  5.2486755E+01
 1.3521370E+01  5.2278492E+01
 1.3540508E+01  5.1950684E+01
 1.3559648E+01  5.1587921E+01
 1.3578786E+01  5.1416912E+01
 1.3597924E+01  5.1275600E+01
 1.3617063E+01  5.1086327E+01
 1.3636201E+01  5.0877785E+01
 1.3655340E+01  5.0775909E+01
 1.3674479E+01  5.0590450E+01
 1.3693617E+01  5.0371422E+01
 1.3712755E+01  5.0230000E+01
 1.3731894E+01  5.0131298E+01
 1.3751033E+01  5.0016659E+01
 1.3770171E+01  4.9967403E+01
 1.3789310E+01  4.9848351E+01
 1.3808448E+01  4.9663891E+01
 1.3827586E+01  4.9506710E+01
 1.3846725E+01  4.9398193E+01
 1.3865864E+01  4.9290665E+01
 1.3885002E+01  4.9134384E+01
 1.3904140E+01  4.9071358E+01
 1.3923279E+01  4.8962708E+01
 1.3942418E+01  4.8881569E+01
 1.3961556E+01  4.8824978E+01
 1.3980695E+01  4.8752354E+01
 1.3999833E+01  4.8617290E+01
 1.4018971E+01  4.8482693E+01
 1.4038111E+01  4.8427063E+01
 1.4057249E+01  4.8363827E+01
 1.4076387E+01  4.8232727E+01
 1.4095526E+01  4.8047962E+01
 1.4114664E+01  4.8089760E+01
 1.4133803E+01  4.8230919E+01
 1.4152942E+01  4.8282661E+01
 1.4172080E+01  4.8333942E+01
 1.4191218E+01  4.8287586E+01
 1.4210357E+01  4.8227226E+01
 1.4229496E+01  4.8176441E+01
 1.4248634E+01  4.8033642E+01
 1.4267773E+01  4.7792950E+01
 1.4286911E+01  4.7495739E+01
 1.4306049E+01  4.7196220E+01
 1.4325189E+01  4.6843155E+01
 1.4344327E+01  4.6574913E+01
 1.4363465E+01  4.6356010E+01
 1.4382604E+01  4.6104118E+01
 1.4401742E+01  4.5771637E+01
 1.4420881E+01  4.5578445E+01
 1.4440020E+01  4.5404846E+01
 1.4459158E+01  4.5375969E+01
 1.4478296E+01  4.5334881E+01
 1.4497435E+01  4.5308517E+01
 1.4516574E+01  4.5151520E+01
 1.4535712E+01  4.4797821E+01
 1.4554851E+01  4.4576832E+01
 1.4573989E+01  4.4444855E+01
 1.4593127E+01  4.4295155E+01
 1.4612267E+01  4.4152779E+01
 1.4631405E+01  4.4137756E+01
 1.4650543E+01  4.4018047E+01
 1.4669682E+01  4.3833813E+01
 1.4688820E+01  4.3682568E+01
 1.4707959E+01  4.3546120E+01
 1.4727098E+01  4.3472130E+01
 1.4746236E+01  4.3437332E+01
 1.4765374E+01  4.3309105E+01
 1.4784513E+01  4.3220642E+01
 1.4803652E+01  4.3097095E+01
 1.4822790E+01  4.2961376E+01
 1.4841928E+01  4.2820530E+01
 1.4861067E+01  4.2727013E+01
 1.4880205E+01  4.2612690E+01
 1.4899344E+01  4.2448536E+01
 1.4918483E+01  4.2324772E+01
 1.4937621E+01  4.2313297E+01
 1.4956759E+01  4.2182323E+01
 1.4975898E+01  4.2002724E+01
 1.4995037E+01  4.1897690E+01
 1.5014175E+01  4.1831802E+01
 1.5033314E+01  4.1756748E+01
 1.5052452E+01  4.1639339E+01
 1.5071590E+01  4.1503086E+01
 1.5090730E+01  4.1385967E+01
 1.5109868E+01  4.1257603E+01
 1.5129006E+01  4.1150082E+01
 1.5148145E+01  4.1086922E+01
 1.5167283E+01  4.1016453E+01
 1.5186422E+01  4.0977451E+01
 1.5205561E+01  4.0934681E+01
 1.5224699E+01  4.0862278E+01
 1.5243837E+01  4.0817562E+01
 1.5262976E+01  4.0758308E+01
 1.5282115E+01  4.0681866E+01
 1.5301253E+01  4.0577599E+01
 1.5320392E+01  4.0502296E+01
 1.5339530E+01  4.0515560E+01
 1.5358668E+01  4.0447922E+01
 1.5377808E+01  4.0402515E+01
 1.5396946E+01  4.0429123E+01
 1.5416084E+01  4.0431648E+01
 1.5435223E+01  4.0326000E+01
 1.5454361E+01  4.0166645E+01
 1.5473500E+01  4.0060310E+01
 1.5492639E+01  3.9866791E+01
 1.5511777E+01  3.9757015E+01
 1.5530915E+01  3.9702858E+01
 1.5550054E+01  3.9652149E+01
 1.5569193E+01  3.9576897E+01
 1.5588331E+01  3.9569134E+01
 1.5607470E+01  3.9565582E+01
 1.5626608E+01  3.9496460E+01
 1.5645746E+01  3.9432796E+01
 1.5664886E+01  3.9368198E+01
 1.5684024E+01  3.9245483E+01
 1.5703162E+01  3.9209343E+01
 1.5722301E+01  3.9211117E+01
 1.5741439E+01  3.9188118E+01
 1.5760578E+01  3.9019424E+01
 1.5779716E+01  3.8965790E+01
 1.5798855E+01  3.8944473E+01
 1.5817993E+01  3.8937618E+01
 1.5837132E+01  3.8966068E+01
 1.5856271E+01  3.8928825E+01
 1.5875409E+01  3.8864548E+01
 1.5894547E+01  3.8855957E+01
 1.5913686E+01  3.8835957E+01
 1.5932824E+01  3.8828148E+01
 1.5951963E+01  3.8739758E+01
 1.5971102E+01  3.8751637E+01
 1.5990240E+01  3.8778683E+01
 1.6009378E+01  3.8784328E+01
 1.6028517E+01  3.8738918E+01
 1.6047655E+01  3.8669003E+01
 1.6066793E+01  3.8662148E+01
 1.6085934E+01  3.8696400E+01
 1.6105072E+01  3.8664085E+01
 1.6124210E+01  3.8582073E+01
 1.6143349E+01  3.8598625E+01
 1.6162487E+01  3.8624493E+01
 1.6181625E+01  3.8646259E+01
 1.6200764E+01  3.8711426E+01
 1.6219902E+01  3.8784058E+01
 1.6239040E+01  3.8889717E+01
 1.6258179E+01  3.8966595E+01
 1.6277319E+01  3.9046196E+01
 1.6296457E+01  3.8989269E+01
 1.6315596E+01  3.8760830E+01
 1.6334734E+01  3.8552498E+01
 1.6353872E+01  3.8462559E+01
 1.6373011E+01  3.8458801E+01
 1.6392149E+01  3.8512615E+01
 1.6411287E+01  3.8423180E+01
 1.6430426E+01  3.8295345E+01
 1.6449564E+01  3.8205547E+01
 1.6468704E+01  3.8221760E+01
 1.6487843E+01  3.8242313E+01
 1.6506981E+01  3.8277039E+01
 1.6526119E+01  3.8398514E+01
 1.6545258E+01  3.8512615E+01
 1.6564396E+01  3.8704201E+01
 1.6583534E+01  3.8718369E+01
 1.6602673E+01  3.8468140E+01
 1.6621811E+01  3.8159683E+01
 1.6640949E+01  3.7827133E+01
 1.6660089E+01  3.7691708E+01
 1.6679228E+01  3.7586002E+01
 1.6698366E+01  3.7467686E+01
 1.6717505E+01  3.7364120E+01
 1.6736643E+01  3.7317108E+01
 1.6755781E+01  3.7265533E+01
 1.6774920E+01  3.7212574E+01
 1.6794058E+01  3.7173534E+01
 1.6813196E+01  3.7180397E+01
 1.6832335E+01  3.7231068E+01
 1.6851475E+01  3.7169830E+01
 1.6870613E+01  3.7156994E+01
 1.6889751E+01  3.7159843E+01
 1.6908890E+01  3.7135731E+01
 1.6928028E+01  3.7162220E+01
 1.6947166E+01  3.7164726E+01
 1.6966305E+01  3.7143314E+01
 1.6985443E+01  3.7130917E+01
 1.7004581E+01  3.7093906E+01
 1.7023720E+01  3.7060112E+01
 1.7042860E+01  3.7093315E+01
 1.7061998E+01  3.7178333E+01
 1.7081137E+01  3.7231228E+01
 1.7100275E+01  3.7396492E+01
 1.7119413E+01  3.7512951E+01
 1.7138552E+01  3.7640480E+01
 1.7157690E+01  3.7649368E+01
 1.7176828E+01  3.7701248E+01
 1.7195967E+01  3.7696938E+01
 1.7215105E+01  3.7622036E+01
 1.7234245E+01  3.7654655E+01
 1.7253384E+01  3.7642994E+01
 1.7272522E+01  3.7485607E+01
 1.7291660E+01  3.7410572E+01
 1.7310799E+01  3.7409962E+01
 1.7329937E+01  3.7413338E+01
 1.7349075E+01  3.7435844E+01
 1.7368214E+01  3.7481049E+01
 1.7387352E+01  3.7551918E+01
 1.7406490E+01  3.7648926E+01
 1.7425631E+01  3.7646557E+01
 1.7444769E+01  3.7521587E+01
 1.7463907E+01  3.7546604E+01
 1.7483046E+01  3.7571297E+01
 1.7502184E+01  3.7633263E+01
 1.7521322E+01  3.7740368E+01
 1.7540461E+01  3.7785709E+01
 1.7559599E+01  3.7830524E+01
 1.7578737E+01  3.7840645E+01
 1.7597876E+01  3.7766102E+01
 1.7617016E+01  3.7812889E+01
 1.7636154E+01  3.7910736E+01
 1.7655293E+01  3.7971268E+01
 1.7674431E+01  3.7961433E+01
 1.7693569E+01  3.7977886E+01
 1.7712708E+01  3.8054859E+01
 1.7731846E+01  3.8132843E+01
 1.7750984E+01  3.8145321E+01
 1.7770123E+01  3.8192722E+01
 1.7789261E+01  3.8206188E+01
 1.7808401E+01  3.8288044E+01
 1.7827539E+01  3.8389446E+01
 1.7846678E+01  3.8418903E+01
 1.7865816E+01  3.8495476E+01
 1.7884954E+01  3.8467636E+01
 1.7904093E+01  3.8553730E+01
 1.7923231E+01  3.8681293E+01
 1.7942369E+01  3.8731346E+01
 1.7961508E+01  3.8767971E+01
 1.7980648E+01  3.8769611E+01
 1.7999786E+01  3.8740566E+01
 1.8018925E+01  3.8790565E+01
 1.8038063E+01  3.8908417E+01
 1.8057201E+01  3.8940399E+01
 1.8076340E+01  3.8990860E+01
 1.8095478E+01  3.9092491E+01
 1.8114616E+01  3.9148636E+01
 1.8133755E+01  3.9237278E+01
 1.8152893E+01  3.9333775E+01
 1.8172033E+01  3.9385487E+01
 1.8191172E+01  3.9400410E+01
 1.8210310E+01  3.9359291E+01
 1.8229448E+01  3.9431751E+01
 1.8248587E+01  3.9526115E+01
 1.8267725E+01  3.9588657E+01
 1.8286863E+01  3.9746712E+01
 1.8306002E+01  3.9870201E+01
 1.8325140E+01  3.9918793E+01
 1.8344278E+01  3.9951626E+01
 1.8363419E+01  4.0040550E+01
 1.8382557E+01  4.0099590E+01
 1.8401695E+01  4.0155552E+01
 1.8420834E+01  4.0258823E+01
 1.8439972E+01  4.0305832E+01
 1.8459110E+01  4.0347942E+01
 1.8478249E+01  4.0564240E+01
 1.8497387E+01  4.0809067E+01
 1.8516525E+01  4.1036976E+01
 1.8535664E+01  4.1190273E+01
 1.8554804E+01  4.1259342E+01
 1.8573942E+01  4.1231667E+01
 1.8593081E+01  4.1181267E+01
 1.8612219E+01  4.1154236E+01
 1.8631357E+01  4.1228561E+01
 1.8650496E+01  4.1397072E+01
 1.8669634E+01  4.1477711E+01
 1.8688772E+01  4.1647446E+01
 1.8707911E+01  4.1933987E+01
 1.8727049E+01  4.2456829E+01
 1.8746189E+01  4.2981468E+01
 1.8765327E+01  4.3202759E+01
 1.8784466E+01  4.3008553E+01
 1.8803604E+01  4.2765247E+01
 1.8822742E+01  4.2645100E+01
 1.8841881E+01  4.2757877E+01
 1.8861019E+01  4.2760677E+01
 1.8880157E+01  4.2759560E+01
 1.8899296E+01  4.2797798E+01
 1.8918434E+01  4.2827229E+01
 1.8937574E+01  4.2833969E+01
 1.8956713E+01  4.2852093E+01
 1.8975851E+01  4.2870293E+01
 1.8994989E+01  4.2854179E+01
 1.9014128E+01  4.2911114E+01
 1.9033266E+01  4.2969868E+01
 1.9052404E+01  4.2996574E+01
 1.9071543E+01  4.3124126E+01
 1.9090681E+01  4.3182316E+01
 1.9109819E+01  4.3194832E+01
 1.9128960E+01  4.3201763E+01
 1.9148098E+01  4.3250042E+01
 1.9167236E+01  4.3334354E+01
 1.9186375E+01  4.3511497E+01
 1.9205513E+01  4.3617069E+01
 1.9224651E+01  4.3760040E+01
 1.9243790E+01  4.3826843E+01
 1.9262928E+01  4.3922836E+01
 1.9282066E+01  4.4019241E+01
 1.9301205E+01  4.4156506E+01
 1.9320345E+01  4.4315868E+01
 1.9339483E+01  4.4455067E+01
 1.9358622E+01  4.4583061E+01
 1.9377760E+01  4.4709370E+01
 1.9396898E+01  4.4700623E+01
 1.9416037E+01  4.4718079E+01
 1.9435175E+01  4.4774933E+01
 1.9454313E+01  4.4840332E+01
 1.9473452E+01  4.4915718E+01
 1.9492590E+01  4.5038704E+01
 1.9511730E+01  4.5096107E+01
 1.9530869E+01  4.5196274E+01
 1.9550007E+01  4.5269424E+01
 1.9569145E+01  4.5377140E+01
 1.9588284E+01  4.5450558E+01
 1.9607422E+01  4.5541985E+01
 1.9626560E+01  4.5653431E+01
 1.9645699E+01  4.5754616E+01
 1.9664837E+01  4.5847702E+01
 1.9683975E+01  4.6065861E+01
 1.9703115E+01  4.6244823E+01
 1.9722254E+01  4.6367393E+01
 1.9741392E+01  4.6416737E+01
 1.9760530E+01  4.6472824E+01
 1.9779669E+01  4.6554897E+01
 1.9798807E+01  4.6612301E+01
 1.9817945E+01  4.6714779E+01
 1.9837084E+01  4.6818592E+01
 1.9856222E+01  4.6948730E+01
 1.9875360E+01  4.7144089E+01
 1.9894501E+01  4.7305134E+01
 1.9913639E+01  4.7502975E+01
 1.9932777E+01  4.7795815E+01
 1.9951916E+01  4.8085999E+01
 1.9971054E+01  4.8241592E+01
 1.9990192E+01  4.8498428E+01
 2.0009331E+01  4.8939827E+01
 2.0028469E+01  4.9448578E+01
 2.0047607E+01  5.0085175E+01
 2.0066746E+01  5.0933216E+01
 2.0085886E+01  5.2286224E+01
 2.0105024E+01  5.5369247E+01
 2.0124163E+01  6.2080109E+01
 2.0143301E+01  7.1302193E+01
 2.0162439E+01  7.5654343E+01
 2.0181578E+01  7.0967575E+01
 2.0200716E+01  6.2788425E+01
 2.0219854E+01  5.6949959E+01
 2.0238993E+01  5.4139286E+01
 2.0258131E+01  5.2857750E+01
 2.0277271E+01  5.2296413E+01
 2.0296410E+01  5.2031296E+01
 2.0315548E+01  5.1948948E+01
 2.0334686E+01  5.2018406E+01
 2.0353825E+01  5.2046467E+01
 2.0372963E+01  5.2170128E+01
 2.0392101E+01  5.2482307E+01
 2.0411240E+01  5.2842087E+01
 2.0430378E+01  5.3342896E+01
 2.0449516E+01  5.3838211E+01
 2.0468657E+01  5.4255619E+01
 2.0487795E+01  5.4762249E+01
 2.0506933E+01  5.5271168E+01
 2.0526072E+01  5.5651802E+01
 2.0545210E+01  5.6097988E+01
 2.0564348E+01  5.6569424E+01
 2.0583487E+01  5.7069511E+01
 2.0602625E+01  5.7971916E+01
 2.0621763E+01  5.9855862E+01
 2.0640902E+01  6.3585056E+01
 2.0660042E+01  6.9284042E+01
 2.0679180E+01  7.4385551E+01
 2.0698318E+01  7.4327209E+01
 2.0717457E+01  6.8859978E+01
 2.0736595E+01  6.2847210E+01
 2.0755733E+01  5.9132778E+01
 2.0774872E+01  5.7342297E+01
 2.0794010E+01  5.6503071E+01
 2.0813148E+01  5.5972027E+01
 2.0832287E+01  5.5428345E+01
 2.0851427E+01  5.4821236E+01
 2.0870565E+01  5.4405468E+01
 2.0889704E+01  5.4063553E+01
 2.0908842E+01  5.3888054E+01
 2.0927980E+01  5.3762630E+01
 2.0947119E+01  5.3547039E+01
 2.0966257E+01  5.3372211E+01
 2.0985395E+01  5.3239227E+01
 2.1004534E+01  5.3187176E+01
 2.1023672E+01  5.3058281E+01
 2.1042812E+01  5.2886002E+01
 2.1061951E+01  5.2830460E+01
 2.1081089E+01  5.2835999E+01
 2.1100227E+01  5.2843380E+01
 2.1119366E+01  5.2863945E+01
 2.1138504E+01  5.2848515E+01
 2.1157642E+01  5.2767948E+01
 2.1176781E+01  5.2587074E+01
 2.1195919E+01  5.2341038E+01
 2.1215057E+01  5.2199963E+01
 2.1234198E+01  5.2075504E+01
 2.1253336E+01  5.1983448E+01
 2.1272474E+01  5.1943909E+01
 2.1291613E+01  5.1888435E+01
 2.1310751E+01  5.1785286E+01
 2.1329889E+01  5.1633739E+01
 2.1349028E+01  5.1519058E+01
 2.1368166E+01  5.1439274E+01
 2.1387304E+01  5.1388069E+01
 2.1406445E+01  5.1336941E+01
 2.1425583E+01  5.1252544E+01
 2.1444721E+01  5.1216324E+01
 2.1463860E+01  5.1165058E+01
 2.1482998E+01  5.1166370E+01
 2.1502136E+01  5.1084942E+01
 2.1521275E+01  5.0993065E+01
 2.1540413E+01  5.0931087E+01
 2.1559551E+01  5.0926327E+01
 2.1578690E+01  5.0947578E+01
 2.1597830E+01  5.1005157E+01
 2.1616968E+01  5.1165344E+01
 2.1636106E+01  5.1302456E+01
 2.1655245E+01  5.1327702E+01
 2.1674383E+01  5.1344177E+01
 2.1693521E+01  5.1357632E+01
 2.1712660E+01  5.1472843E+01
 2.1731798E+01  5.1819408E+01
 2.1750937E+01  5.2288898E+01
 2.1770075E+01  5.2529190E+01
 2.1789215E+01  5.2304199E+01
 2.1808353E+01  5.1804886E+01
 2.1827492E+01  5.1403004E+01
 2.1846630E+01  5.1157223E+01
 2.1865768E+01  5.1021515E+01
 2.1884907E+01  5.0910568E+01
 2.1904045E+01  5.0826328E+01
 2.1923183E+01  5.0689079E+01
 2.1942322E+01  5.0534897E+01
 2.1961460E+01  5.0488693E+01
 2.1980600E+01  5.0447189E+01
 2.1999739E+01  5.0366871E+01
 2.2018877E+01  5.0276405E+01
 2.2038015E+01  5.0295727E+01
 2.2057154E+01  5.0329426E+01
 2.2076292E+01  5.0176769E+01
 2.2095430E+01  4.9965778E+01
 2.2114569E+01  4.9843212E+01
 2.2133707E+01  4.9790321E+01
 2.2152845E+01  4.9778984E+01
 2.2171986E+01  4.9773903E+01
 2.2191124E+01  4.9731838E+01
 2.2210262E+01  4.9749878E+01
 2.2229401E+01  4.9877235E+01
 2.2248539E+01  4.9934448E+01
 2.2267677E+01  5.0043331E+01
 2.2286816E+01  4.9988415E+01
 2.2305954E+01  4.9860115E+01
 2.2325092E+01  4.9853344E+01
 2.2344231E+01  4.9985081E+01
 2.2363371E+01  5.0134399E+01
 2.2382509E+01  5.0437515E+01
 2.2401648E+01  5.1014980E+01
 2.2420786E+01  5.1697186E+01
 2.2439924E+01  5.2720722E+01
 2.2459063E+01  5.3833065E+01
 2.2478201E+01  5.4337227E+01
 2.2497339E+01  5.4466976E+01
 2.2516478E+01  5.4813358E+01
 2.2535616E+01  5.5133137E+01
 2.2554756E+01  5.4775070E+01
 2.2573895E+01  5.3986401E+01
 2.2593033E+01  5.3054573E+01
 2.2612171E+01  5.2020348E+01
 2.2631310E+01  5.0940796E+01
 2.2650448E+01  5.0137463E+01
 2.2669586E+01  4.9670341E+01
 2.2688725E+01  4.9455254E+01
 2.2707863E+01  4.9319565E+01
 2.2727001E+01  4.9250435E+01
 2.2746141E+01  4.9297226E+01
 2.2765280E+01  4.9657200E+01
 2.2784418E+01  5.0302261E+01
 2.2803556E+01  5.1349686E+01
 2.2822695E+01  5.2550831E+01
 2.2841833E+01  5.2683220E+01
 2.2860971E+01  5.1480690E+01
 2.2880110E+01  5.0200798E+01
 2.2899248E+01  4.9554699E+01
 2.2918386E+01  4.9536934E+01
 2.2937527E+01  4.9655907E+01
 2.2956665E+01  4.9155716E+01
 2.2975803E+01  4.8392467E+01
 2.2994942E+01  4.7760098E+01
 2.3014080E+01  4.7292507E+01
 2.3033218E+01  4.7038853E+01
 2.3052357E+01  4.6825974E+01
 2.3071495E+01  4.6618324E+01
 2.3090633E+01  4.6311947E+01
 2.3109772E+01  4.6061069E+01
 2.3128912E+01  4.5902153E+01
 2.3148050E+01  4.5769100E+01
 2.3167189E+01  4.5733139E+01
 2.3186327E+01  4.5697453E+01
 2.3205465E+01  4.5804249E+01
 2.3224604E+01  4.5986706E+01
 2.3243742E+01  4.6316944E+01
 2.3262880E+01  4.6853302E+01
 2.3282019E+01  4.7249283E+01
 2.3301157E+01  4.7332008E+01
 2.3320297E+01  4.7073421E+01
 2.3339436E+01  4.6538406E+01
 2.3358574E+01  4.6035446E+01
 2.3377712E+01  4.5743958E+01
 2.3396851E+01  4.5559361E+01
 2.3415989E+01  4.5385136E+01
 2.3435127E+01  4.5341496E+01
 2.3454266E+01  4.5304825E+01
 2.3473404E+01  4.5398666E+01
 2.3492542E+01  4.5515842E+01
 2.3511683E+01  4.5552677E+01
 2.3530821E+01  4.5582409E+01
 2.3549959E+01  4.5672760E+01
 2.3569098E+01  4.5761784E+01
 2.3588236E+01  4.5929604E+01
 2.3607374E+01  4.6229519E+01
 2.3626513E+01  4.6707924E+01
 2.3645651E+01  4.7316090E+01
 2.3664789E+01  4.8051159E+01
 2.3683928E+01  4.8918633E+01
 2.3703068E+01  4.9925156E+01
 2.3722206E+01  5.1312202E+01
 2.3741344E+01  5.3469734E+01
 2.3760483E+01  5.7223042E+01
 2.3779621E+01  6.4624207E+01
 2.3798759E+01  7.9033676E+01
 2.3817898E+01  1.0375368E+02
 2.3837036E+01  1.3583469E+02
 2.3856174E+01  1.6068462E+02
 2.3875313E+01  1.6118361E+02
 2.3894453E+01  1.3676111E+02
 2.3913591E+01  1.0450282E+02
 2.3932730E+01  7.9379280E+01
 2.3951868E+01  6.4551018E+01
 2.3971006E+01  5.6755081E+01
 2.3990145E+01  5.2650307E+01
 2.4009283E+01  5.0433033E+01
 2.4028421E+01  4.9210587E+01
 2.4047560E+01  4.8502735E+01
 2.4066698E+01  4.7726101E+01
 2.4085838E+01  4.6863476E+01
 2.4104977E+01  4.5893589E+01
 2.4124115E+01  4.4986492E+01
 2.4143253E+01  4.4368858E+01
 2.4162392E+01  4.4020367E+01
 2.4181530E+01  4.3706413E+01
 2.4200668E+01  4.3539692E+01
 2.4219807E+01  4.3358177E+01
 2.4238945E+01  4.3219803E+01
 2.4258083E+01  4.3054390E+01
 2.4277224E+01  4.2829571E+01
 2.4296362E+01  4.2630299E+01
 2.4315500E+01  4.2542202E+01
 2.4334639E+01  4.2371010E+01
 2.4353777E+01  4.2163261E+01
 2.4372915E+01  4.1943012E+01
 2.4392054E+01  4.1736065E+01
 2.4411192E+01  4.1581650E+01
 2.4430330E+01  4.1490971E+01
 2.4449469E+01  4.1391373E+01
 2.4468609E+01  4.1312965E+01
 2.4487747E+01  4.1324841E+01
 2.4506886E+01  4.1354431E+01
 2.4526024E+01  4.1348572E+01
 2.4545162E+01  4.1363419E+01
 2.4564301E+01  4.1391975E+01
 2.4583439E+01  4.1506695E+01
 2.4602577E+01  4.1627769E+01
 2.4621716E+01  4.1585373E+01
 2.4640856E+01  4.1573563E+01
 2.4659994E+01  4.1660252E+01
 2.4679132E+01  4.1559929E+01
 2.4698271E+01  4.1384979E+01
 2.4717409E+01  4.1156487E+01
 2.4736547E+01  4.0957619E+01
 2.4755686E+01  4.0747120E+01
 2.4774824E+01  4.0534100E+01
 2.4793962E+01  4.0450130E+01
 2.4813101E+01  4.0291687E+01
 2.4832241E+01  4.0155811E+01
 2.4851379E+01  4.0089211E+01
 2.4870518E+01  4.0068123E+01
 2.4889656E+01  4.0001518E+01
 2.4908794E+01  3.9886848E+01
 2.4927933E+01  3.9777428E+01
 2.4947071E+01  3.9571857E+01
 2.4966209E+01  3.9454399E+01
 2.4985348E+01  3.9359764E+01
 2.5004486E+01  3.9407516E+01
 2.5023626E+01  3.9367077E+01
 2.5042765E+01  3.9331818E+01
 2.5061903E+01  3.9358624E+01
 2.5081041E+01  3.9496250E+01
 2.5100180E+01  3.9730350E+01
 2.5119318E+01  3.9965019E+01
 2.5138456E+01  4.0358253E+01
 2.5157595E+01  4.0646954E+01
 2.5176733E+01  4.0689514E+01
 2.5195871E+01  4.0374588E+01
 2.5215012E+01  3.9985798E+01
 2.5234150E+01  3.9645428E+01
 2.5253288E+01  3.9428497E+01
 2.5272427E+01  3.9201164E+01
 2.5291565E+01  3.9018421E+01
 2.5310703E+01  3.8939560E+01
 2.5329842E+01  3.8883553E+01
 2.5348980E+01  3.8777950E+01
 2.5368118E+01  3.8659435E+01
 2.5387257E+01  3.8642605E+01
 2.5406397E+01  3.8623928E+01
 2.5425535E+01  3.8623192E+01
 2.5444674E+01  3.8782993E+01
 2.5463812E+01  3.8945942E+01
 2.5482950E+01  3.8977417E+01
 2.5502089E+01  3.9074867E+01
 2.5521227E+01  3.9357315E+01
 2.5540365E+01  3.9509239E+01
 2.5559504E+01  3.9567089E+01
 2.5578642E+01  3.9560783E+01
 2.5597782E+01  3.9473690E+01
 2.5616920E+01  3.9461903E+01
 2.5636059E+01  3.9409332E+01
 2.5655197E+01  3.9319096E+01
 2.5674335E+01  3.9203552E+01
 2.5693474E+01  3.9109406E+01
 2.5712612E+01  3.8933262E+01
 2.5731750E+01  3.8830788E+01
 2.5750889E+01  3.8809464E+01
 2.5770027E+01  3.8859356E+01
 2.5789167E+01  3.8877762E+01
 2.5808306E+01  3.8779392E+01
 2.5827444E+01  3.8613873E+01
 2.5846582E+01  3.8437199E+01
 2.5865721E+01  3.8371880E+01
 2.5884859E+01  3.8294102E+01
 2.5903997E+01  3.8277645E+01
 2.5923136E+01  3.8336025E+01
 2.5942274E+01  3.8252144E+01
 2.5961412E+01  3.8266830E+01
 2.5980553E+01  3.8371494E+01
 2.5999691E+01  3.8405022E+01
 2.6018829E+01  3.8428295E+01
 2.6037968E+01  3.8361752E+01
 2.6057106E+01  3.8239140E+01
 2.6076244E+01  3.8126602E+01
 2.6095383E+01  3.8090034E+01
 2.6114521E+01  3.7984776E+01
 2.6133659E+01  3.7889374E+01
 2.6152798E+01  3.7777599E+01
 2.6171938E+01  3.7645416E+01
 2.6191076E+01  3.7543503E+01
 2.6210215E+01  3.7537170E+01
 2.6229353E+01  3.7487465E+01
 2.6248491E+01  3.7478607E+01
 2.6267630E+01  3.7573872E+01
 2.6286768E+01  3.7540562E+01
 2.6305906E+01  3.7461388E+01
 2.6325045E+01  3.7531239E+01
 2.6344183E+01  3.7548214E+01
 2.6363323E+01  3.7564148E+01
 2.6382462E+01  3.7564110E+01
 2.6401600E+01  3.7578865E+01
 2.6420738E+01  3.7541119E+01
 2.6439877E+01  3.7531033E+01
 2.6459015E+01  3.7480614E+01
 2.6478153E+01  3.7443672E+01
 2.6497292E+01  3.7483261E+01
 2.6516430E+01  3.7614307E+01
 2.6535568E+01  3.7668339E+01
 2.6554708E+01  3.7764915E+01
 2.6573847E+01  3.7819748E+01
 2.6592985E+01  3.7809925E+01
 2.6612123E+01  3.7790195E+01
 2.6631262E+01  3.7781395E+01
 2.6650400E+01  3.7799389E+01
 2.6669538E+01  3.7773335E+01
 2.6688677E+01  3.7722626E+01
 2.6707815E+01  3.7666176E+01
 2.6726954E+01  3.7686256E+01
 2.6746094E+01  3.7742390E+01
 2.6765232E+01  3.7768623E+01
 2.6784370E+01  3.7779358E+01
 2.6803509E+01  3.7800091E+01
 2.6822647E+01  3.7762314E+01
 2.6841785E+01  3.7785004E+01
 2.6860924E+01  3.7795689E+01
 2.6880062E+01  3.7845165E+01
 2.6899200E+01  3.7922745E+01
 2.6918339E+01  3.7971584E+01
 2.6937479E+01  3.8062687E+01
 2.6956617E+01  3.8118313E+01
 2.6975756E+01  3.8148876E+01
 2.6994894E+01  3.8124065E+01
 2.7014032E+01  3.8178982E+01
 2.7033171E+01  3.8294651E+01
 2.7052309E+01  3.8293541E+01
 2.7071447E+01  3.8260750E+01
 2.7090586E+01  3.8209114E+01
 2.7109724E+01  3.8202705E+01
 2.7128864E+01  3.8224052E+01
 2.7148003E+01  3.8281338E+01
 2.7167141E+01  3.8309113E+01
 2.7186279E+01  3.8312183E+01
 2.7205418E+01  3.8357166E+01
 2.7224556E+01  3.8408890E+01
 2.7243694E+01  3.8484219E+01
 2.7262833E+01  3.8580566E+01
 2.7281971E+01  3.8678726E+01
 2.7301109E+01  3.8737305E+01
 2.7320250E+01  3.8738075E+01
 2.7339388E+01  3.8767147E+01
 2.7358526E+01  3.8890236E+01
 2.7377665E+01  3.9153389E+01
 2.7396803E+01  3.9539810E+01
 2.7415941E+01  3.9927052E+01
 2.7435080E+01  4.0516541E+01
 2.7454218E+01  4.1043396E+01
 2.7473356E+01  4.1341949E+01
 2.7492495E+01  4.1341587E+01
 2.7511635E+01  4.0947231E+01
 2.7530773E+01  4.0500778E+01
 2.7549911E+01  4.0095539E+01
 2.7569050E+01  3.9840061E+01
 2.7588188E+01  3.9671967E+01
 2.7607327E+01  3.9521755E+01
 2.7626465E+01  3.9404217E+01
 2.7645603E+01  3.9266068E+01
 2.7664742E+01  3.9199184E+01
 2.7683880E+01  3.9133877E+01
 2.7703020E+01  3.9057087E+01
 2.7722158E+01  3.8905205E+01
 2.7741297E+01  3.8759109E+01
 2.7760435E+01  3.8655159E+01
 2.7779573E+01  3.8618328E+01
 2.7798712E+01  3.8574192E+01
 2.7817850E+01  3.8537018E+01
 2.7836988E+01  3.8500439E+01
 2.7856127E+01  3.8566608E+01
 2.7875267E+01  3.8633385E+01
 2.7894405E+01  3.8633221E+01
 2.7913544E+01  3.8588173E+01
 2.7932682E+01  3.8568047E+01
 2.7951820E+01  3.8605804E+01
 2.7970959E+01  3.8596550E+01
 2.7990097E+01  3.8581757E+01
 2.8009235E+01  3.8631405E+01
 2.8028374E+01  3.8618790E+01
 2.8047512E+01  3.8614750E+01
 2.8066652E+01  3.8622410E+01
 2.8085791E+01  3.8662193E+01
 2.8104929E+01  3.8645454E+01
 2.8124067E+01  3.8609879E+01
 2.8143206E+01  3.8596920E+01
 2.8162344E+01  3.8621452E+01
 2.8181482E+01  3.8714958E+01
 2.8200621E+01  3.8798714E+01
 2.8219759E+01  3.8828053E+01
 2.8238897E+01  3.8840511E+01
 2.8258038E+01  3.8801064E+01
 2.8277176E+01  3.8834427E+01
 2.8296314E+01  3.8943180E+01
 2.8315453E+01  3.9047916E+01
 2.8334591E+01  3.9086143E+01
 2.8353729E+01  3.9088402E+01
 2.8372868E+01  3.9071655E+01
 2.8392006E+01  3.9133850E+01
 2.8411144E+01  3.9236000E+01
 2.8430283E+01  3.9337471E+01
 2.8449423E+01  3.9436317E+01
 2.8468561E+01  3.9604649E+01
 2.8487700E+01  3.9851269E+01
 2.8506838E+01  4.0063377E+01
 2.8525976E+01  4.0261208E+01
 2.8545115E+01  4.0390076E+01
 2.8564253E+01  4.0548832E+01
 2.8583391E+01  4.0821209E+01
 2.8602530E+01  4.1144211E+01
 2.8621668E+01  4.1377537E+01
 2.8640808E+01  4.1348984E+01
 2.8659946E+01  4.0944912E+01
 2.8679085E+01  4.0518238E+01
 2.8698223E+01  4.0226013E+01
 2.8717361E+01  4.0298218E+01
 2.8736500E+01  4.0369453E+01
 2.8755638E+01  4.0197353E+01
 2.8774776E+01  3.9961449E+01
 2.8793915E+01  3.9756493E+01
 2.8813053E+01  3.9647469E+01
 2.8832193E+01  3.9601246E+01
 2.8851332E+01  3.9664867E+01
 2.8870470E+01  3.9728336E+01
 2.8889608E+01  3.9887230E+01
 2.8908747E+01  4.0042606E+01
 2.8927885E+01  4.0112110E+01
 2.8947023E+01  4.0162605E+01
 2.8966162E+01  4.0185890E+01
 2.8985300E+01  4.0075840E+01
 2.9004438E+01  3.9967102E+01
 2.9023579E+01  3.9883472E+01
 2.9042717E+01  3.9906494E+01
 2.9061855E+01  3.9838303E+01
 2.9080994E+01  3.9766270E+01
 2.9100132E+01  3.9809292E+01
 2.9119270E+01  3.9854866E+01
 2.9138409E+01  3.9910023E+01
 2.9157547E+01  3.9887737E+01
 2.9176685E+01  3.9873356E+01
 2.9195824E+01  3.9864956E+01
 2.9214964E+01  3.9859112E+01
 2.9234102E+01  3.9795940E+01
 2.9253241E+01  3.9734638E+01
 2.9272379E+01  3.9766899E+01
 2.9291517E+01  3.9788498E+01
 2.9310656E+01  3.9737099E+01
 2.9329794E+01  3.9753597E+01
 2.9348932E+01  3.9807388E+01
 2.9368071E+01  3.9837418E+01
 2.9387209E+01  3.9896553E+01
 2.9406349E+01  3.9978828E+01
 2.9425488E+01  3.9988106E+01
 2.9444626E+01  3.9953293E+01
 2.9463764E+01  3.9876926E+01
 2.9482903E+01  3.9840736E+01
 2.9502041E+01  3.9788883E+01
 2.9521179E+01  3.9699390E+01
 2.9540318E+01  3.9687012E+01
 2.9559456E+01  3.9730888E+01
 2.9578594E+01  3.9704659E+01
 2.9597734E+01  3.9688313E+01
 2.9616873E+01  3.9741196E+01
 2.9636011E+01  3.9818737E+01
 2.9655149E+01  3.9911678E+01
 2.9674288E+01  4.0036152E+01
 2.9693426E+01  4.0164783E+01
 2.9712564E+01  4.0493507E+01
 2.9731703E+01  4.1084820E+01
 2.9750841E+01  4.2160599E+01
 2.9769979E+01  4.3419693E+01
 2.9789120E+01  4.3933697E+01
 2.9808258E+01  4.3404060E+01
 2.9827396E+01  4.2207249E+01
 2.9846535E+01  4.1090588E+01
 2.9865673E+01  4.0549202E+01
 2.9884811E+01  4.0365036E+01
 2.9903950E+01  4.0414562E+01
 2.9923088E+01  4.0652195E+01
 2.9942226E+01  4.1175385E+01
 2.9961365E+01  4.1750435E+01
 2.9980505E+01  4.1961231E+01
 2.9999643E+01  4.1696407E+01
 3.0018782E+01  4.1261459E+01
 3.0037920E+01  4.0766594E+01
 3.0057058E+01  4.0399006E+01
 3.0076197E+01  4.0073986E+01
 3.0095335E+01  3.9880028E+01
 3.0114473E+01  3.9789604E+01
 3.0133612E+01  3.9725647E+01
 3.0152750E+01  3.9731678E+01
 3.0171890E+01  3.9652569E+01
 3.0191029E+01  3.9640823E+01
 3.0210167E+01  3.9628220E+01
 3.0229305E+01  3.9558208E+01
 3.0248444E+01  3.9562683E+01
 3.0267582E+01  3.9532337E+01
 3.0286720E+01  3.9538586E+01
 3.0305859E+01  3.9592262E+01
 3.0324997E+01  3.9568863E+01
 3.0344135E+01  3.9566761E+01
 3.0363276E+01  3.9562908E+01
 3.0382414E+01  3.9490528E+01
 3.0401552E+01  3.9505447E+01
 3.0420691E+01  3.9591057E+01
 3.0439829E+01  3.9651993E+01
 3.0458967E+01  3.9629993E+01
 3.0478106E+01  3.9679569E+01
 3.0497244E+01  3.9889572E+01
 3.0516382E+01  4.0019230E+01
 3.0535521E+01  4.0097656E+01
 3.0554661E+01  4.0119915E+01
 3.0573799E+01  4.0119453E+01
 3.0592937E+01  4.0013718E+01
 3.0612076E+01  3.9950905E+01
 3.0631214E+01  3.9819687E+01
 3.0650352E+01  3.9673046E+01
 3.0669491E+01  3.9538723E+01
 3.0688629E+01  3.9498970E+01
 3.0707767E+01  3.9456112E+01
 3.0726906E+01  3.9517193E+01
 3.0746046E+01  3.9521873E+01
 3.0765184E+01  3.9588329E+01
 3.0784323E+01  3.9625561E+01
 3.0803461E+01  3.9662849E+01
 3.0822599E+01  3.9654320E+01
 3.0841738E+01  3.9709820E+01
 3.0860876E+01  3.9754345E+01
 3.0880014E+01  3.9921856E+01
 3.0899153E+01  4.0075748E+01
 3.0918291E+01  4.0227779E+01
 3.0937431E+01  4.0332958E+01
 3.0956570E+01  4.0359360E+01
 3.0975708E+01  4.0401569E+01
 3.0994846E+01  4.0330654E+01
 3.1013985E+01  4.0213402E+01
 3.1033123E+01  4.0103363E+01
 3.1052261E+01  3.9993027E+01
 3.1071400E+01  3.9884846E+01
 3.1090538E+01  3.9753033E+01
 3.1109678E+01  3.9623386E+01
 3.1128817E+01  3.9472862E+01
 3.1147955E+01  3.9380276E+01
 3.1167093E+01  3.9237720E+01
 3.1186232E+01  3.9162224E+01
 3.1205370E+01  3.9032654E+01
 3.1224508E+01  3.8982533E+01
 3.1243647E+01  3.8911301E+01
 3.1262785E+01  3.8758434E+01
 3.1281923E+01  3.8689606E+01
 3.1301064E+01  3.8589069E+01
 3.1320202E+01  3.8550236E+01
 3.1339340E+01  3.8487865E+01
 3.1358479E+01  3.8443054E+01
 3.1377617E+01  3.8407677E+01
 3.1396755E+01  3.8410213E+01
 3.1415894E+01  3.8422745E+01
 3.1435032E+01  3.8504391E+01
 3.1454170E+01  3.8557659E+01
 3.1473309E+01  3.8566048E+01
 3.1492449E+01  3.8593174E+01
 3.1511587E+01  3.8534557E+01
 3.1530725E+01  3.8626904E+01
 3.1549864E+01  3.8812675E+01
 3.1569002E+01  3.8704762E+01
 3.1588140E+01  3.8663883E+01
 3.1607279E+01  3.8785728E+01
 3.1626417E+01  3.8907272E+01
 3.1645555E+01  3.8971771E+01
 3.1664694E+01  3.8946472E+01
 3.1683834E+01  3.8813667E+01
 3.1702972E+01  3.8643394E+01
 3.1722111E+01  3.8548595E+01
 3.1741249E+01  3.8509899E+01
 3.1760387E+01  3.8463772E+01
 3.1779526E+01  3.8198227E+01
 3.1798664E+01  3.8130966E+01
 3.1817802E+01  3.8240826E+01
 3.1836941E+01  3.8197636E+01
 3.1856079E+01  3.8208321E+01
 3.1875219E+01  3.8180557E+01
 3.1894358E+01  3.8098877E+01
 3.1913496E+01  3.8077156E+01
 3.1932634E+01  3.8058201E+01
 3.1951773E+01  3.8017624E+01
 3.1970911E+01  3.8047489E+01
 3.1990049E+01  3.8021843E+01
 3.2009190E+01  3.8016911E+01
 3.2028328E+01  3.7972874E+01
 3.2047466E+01  3.7725689E+01
 3.2066605E+01  3.7451565E+01
 3.2085743E+01  3.7544960E+01
 3.2104881E+01  3.7638447E+01
 3.2124020E+01  3.7666454E+01
 3.2143158E+01  3.7659321E+01
 3.2162296E+01  3.7664543E+01
 3.2181435E+01  3.7693615E+01
 3.2200573E+01  3.7615993E+01
 3.2219711E+01  3.7661201E+01
 3.2238850E+01  3.7828773E+01
 3.2257988E+01  3.8016331E+01
 3.2277126E+01  3.8026199E+01
 3.2296265E+01  3.8124332E+01
 3.2315403E+01  3.8254978E+01
 3.2334541E+01  3.8442051E+01
 3.2353683E+01  3.9013374E+01
 3.2372822E+01  3.9742958E+01
 3.2391960E+01  4.0762779E+01
 3.2411098E+01  4.2447227E+01
 3.2430237E+01  4.4774075E+01
 3.2449375E+01  4.8160740E+01
 3.2468513E+01  5.2847454E+01
 3.2487652E+01  5.8528370E+01
 3.2506790E+01  6.4642738E+01
 3.2525928E+01  7.0181252E+01
 3.2545067E+01  7.2892502E+01
 3.2564205E+01  7.1375725E+01
 3.2583344E+01  6.5685356E+01
 3.2602482E+01  5.8417534E+01
 3.2621620E+01  5.1862816E+01
 3.2640759E+01  4.7111511E+01
 3.2659897E+01  4.4025314E+01
 3.2679035E+01  4.2175888E+01
 3.2698174E+01  4.1074303E+01
 3.2717312E+01  4.0279083E+01
 3.2736454E+01  3.9876118E+01
 3.2755592E+01  3.9632282E+01
 3.2774731E+01  3.9524235E+01
 3.2793869E+01  3.9586891E+01
 3.2813007E+01  3.9822834E+01
 3.2832146E+01  4.0262562E+01
 3.2851284E+01  4.0393642E+01
 3.2870422E+01  4.0159233E+01
 3.2889561E+01  3.9665554E+01
 3.2908699E+01  3.9094982E+01
 3.2927837E+01  3.8488625E+01
 3.2946976E+01  3.7971004E+01
 3.2966114E+01  3.7720184E+01
 3.2985252E+01  3.7488605E+01
 3.3004391E+01  3.7389946E+01
 3.3023529E+01  3.7250851E+01
 3.3042667E+01  3.6978001E+01
 3.3061806E+01  3.6830681E+01
 3.3080944E+01  3.6799194E+01
 3.3100082E+01  3.6735638E+01
 3.3119225E+01  3.6744022E+01
 3.3138363E+01  3.6627525E+01
 3.3157501E+01  3.6437614E+01
 3.3176640E+01  3.6402725E+01
 3.3195778E+01  3.6387009E+01
 3.3214916E+01  3.6365646E+01
 3.3234055E+01  3.6400322E+01
 3.3253193E+01  3.6399780E+01
 3.3272331E+01  3.6414097E+01
 3.3291470E+01  3.6449554E+01
 3.3310608E+01  3.6396618E+01
 3.3329746E+01  3.6391800E+01
 3.3348885E+01  3.6301533E+01
 3.3368023E+01  3.6307270E+01
 3.3387161E+01  3.6381195E+01
 3.3406300E+01  3.6565022E+01
 3.3425438E+01  3.6683071E+01
 3.3444576E+01  3.6960423E+01
 3.3463715E+01  3.7320599E+01
 3.3482853E+01  3.7541126E+01
 3.3501995E+01  3.7484863E+01
 3.3521133E+01  3.7261044E+01
 3.3540272E+01  3.7130783E+01
 3.3559410E+01  3.6864365E+01
 3.3578548E+01  3.6601917E+01
 3.3597687E+01  3.6391132E+01
 3.3616825E+01  3.6344101E+01
 3.3635963E+01  3.6295959E+01
 3.3655102E+01  3.6212852E+01
 3.3674240E+01  3.6196247E+01
 3.3693378E+01  3.6255745E+01
 3.3712517E+01  3.6253925E+01
 3.3731655E+01  3.6244465E+01
 3.3750793E+01  3.6195206E+01
 3.3769932E+01  3.6127911E+01
 3.3789070E+01  3.6080971E+01
 3.3808208E+01  3.6132713E+01
 3.3827347E+01  3.6188965E+01
 3.3846485E+01  3.6122814E+01
 3.3865623E+01  3.5970547E+01
 3.3884766E+01  3.5971439E+01
 3.3903904E+01  3.6132961E+01
 3.3923042E+01  3.6240040E+01
 3.3942181E+01  3.6346375E+01
 3.3961319E+01  3.6448215E+01
 3.3980457E+01  3.6553349E+01
 3.3999596E+01  3.6648861E+01
 3.4018734E+01  3.6720669E+01
 3.4037872E+01  3.6757309E+01
 3.4057011E+01  3.6846992E+01
 3.4076149E+01  3.6916958E+01
 3.4095287E+01  3.6936115E+01
 3.4114426E+01  3.7071247E+01
 3.4133564E+01  3.7146954E+01
 3.4152702E+01  3.7332886E+01
 3.4171841E+01  3.7464718E+01
 3.4190979E+01  3.7694508E+01
 3.4210117E+01  3.7940449E+01
 3.4229256E+01  3.8160686E+01
 3.4248394E+01  3.8337013E+01
 3.4267536E+01  3.8577019E+01
 3.4286674E+01  3.8841789E+01
 3.4305813E+01  3.9011242E+01
 3.4324951E+01  3.9204983E+01
 3.4344090E+01  3.9354042E+01
 3.4363228E+01  3.9448860E+01
 3.4382366E+01  3.9567120E+01
 3.4401505E+01  3.9687435E+01
 3.4420643E+01  3.9648125E+01
 3.4439781E+01  3.9558727E+01
 3.4458920E+01  3.9340981E+01
 3.4478058E+01  3.9157295E+01
 3.4497196E+01  3.9022640E+01
 3.4516335E+01  3.8820408E+01
 3.4535473E+01  3.8638733E+01
 3.4554611E+01  3.8422440E+01
 3.4573750E+01  3.8220684E+01
 3.4592888E+01  3.8007629E+01
 3.4612026E+01  3.7836105E+01
 3.4631168E+01  3.7737911E+01
 3.4650307E+01  3.7812874E+01
 3.4669445E+01  3.7678978E+01
 3.4688583E+01  3.7655624E+01
 3.4707722E+01  3.7821331E+01
 3.4726860E+01  3.7930141E+01
 3.4745998E+01  3.8047871E+01
 3.4765137E+01  3.8238216E+01
 3.4784275E+01  3.8512383E+01
 3.4803413E+01  3.8768723E+01
 3.4822552E+01  3.9261246E+01
 3.4841690E+01  4.0454067E+01
 3.4860828E+01  4.3190643E+01
 3.4879967E+01  4.8963783E+01
 3.4899105E+01  5.8107670E+01
 3.4918243E+01  6.6580597E+01
 3.4937382E+01  6.8664757E+01
 3.4956520E+01  6.3755585E+01
 3.4975658E+01  5.5327496E+01
 3.4994797E+01  4.8045353E+01
 3.5013939E+01  4.3657288E+01
 3.5033077E+01  4.1142731E+01
 3.5052216E+01  3.9586952E+01
 3.5071354E+01  3.8553913E+01
 3.5090492E+01  3.7987019E+01
 3.5109631E+01  3.7597153E+01
 3.5128769E+01  3.7179859E+01
 3.5147907E+01  3.6935085E+01
 3.5167046E+01  3.6849907E+01
 3.5186184E+01  3.6669094E+01
 3.5205322E+01  3.6391312E+01
 3.5224461E+01  3.6244152E+01
 3.5243599E+01  3.6226543E+01
 3.5262737E+01  3.6106583E+01
 3.5281876E+01  3.6028793E+01
 3.5301014E+01  3.5993118E+01
 3.5320152E+01  3.6028709E+01
 3.5339291E+01  3.6033569E+01
 3.5358429E+01  3.5929619E+01
 3.5377567E+01  3.5858902E+01
 3.5396709E+01  3.5796696E+01
 3.5415848E+01  3.5653828E+01
 3.5434986E+01  3.5776550E+01
 3.5454124E+01  3.5921169E+01
 3.5473263E+01  3.5966038E+01
 3.5492401E+01  3.6145611E+01
 3.5511539E+01  3.6257870E+01
 3.5530678E+01  3.6614933E+01
 3.5549816E+01  3.6794247E+01
 3.5568954E+01  3.6601467E+01
 3.5588093E+01  3.6441196E+01
 3.5607231E+01  3.6394070E+01
 3.5626369E+01  3.6334763E+01
 3.5645508E+01  3.6197880E+01
 3.5664646E+01  3.6084026E+01
 3.5683784E+01  3.5947716E+01
 3.5702923E+01  3.5912598E+01
 3.5722061E+01  3.5824989E+01
 3.5741199E+01  3.5829659E+01
 3.5760338E+01  3.5808365E+01
 3.5779480E+01  3.5703491E+01
 3.5798618E+01  3.5757645E+01
 3.5817757E+01  3.5731148E+01
 3.5836895E+01  3.5827747E+01
 3.5856033E+01  3.5848797E+01
 3.5875172E+01  3.5771637E+01
 3.5894310E+01  3.5812859E+01
 3.5913448E+01  3.5867985E+01
 3.5932587E+01  3.5866756E+01
 3.5951725E+01  3.5766125E+01
 3.5970863E+01  3.5845566E+01
 3.5990002E+01  3.5819901E+01
 3.6009140E+01  3.5752769E+01
 3.6028278E+01  3.5840431E+01
 3.6047417E+01  3.5883713E+01
 3.6066555E+01  3.5947784E+01
 3.6085693E+01  3.5908863E+01
 3.6104832E+01  3.5855110E+01
 3.6123970E+01  3.5916512E+01
 3.6143108E+01  3.5993523E+01
 3.6162251E+01  3.6129025E+01
 3.6181389E+01  3.6162624E+01
 3.6200527E+01  3.6114746E+01
 3.6219666E+01  3.6134247E+01
 3.6238804E+01  3.6154213E+01
 3.6257942E+01  3.6309803E+01
 3.6277081E+01  3.6459541E+01
 3.6296219E+01  3.6363529E+01
 3.6315357E+01  3.6518604E+01
 3.6334496E+01  3.6668423E+01
 3.6353634E+01  3.6584129E+01
 3.6372772E+01  3.6427677E+01
 3.6391911E+01  3.6464924E+01
 3.6411049E+01  3.6446926E+01
 3.6430187E+01  3.6232140E+01
 3.6449326E+01  3.6328854E+01
 3.6468464E+01  3.6187984E+01
 3.6487602E+01  3.6085472E+01
 3.6506741E+01  3.6099773E+01
 3.6525879E+01  3.6206337E+01
 3.6545021E+01  3.6288353E+01
 3.6564159E+01  3.6250092E+01
 3.6583298E+01  3.6113445E+01
 3.6602436E+01  3.6028488E+01
 3.6621574E+01  3.6112438E+01
 3.6640713E+01  3.6305820E+01
 3.6659851E+01  3.6274582E+01
 3.6678989E+01  3.6302906E+01
 3.6698128E+01  3.6393051E+01
 3.6717266E+01  3.6295971E+01
 3.6736404E+01  3.6130962E+01
 3.6755543E+01  3.6134396E+01
 3.6774681E+01  3.6128342E+01
 3.6793819E+01  3.6135162E+01
 3.6812958E+01  3.6200420E+01
 3.6832096E+01  3.6170731E+01
 3.6851234E+01  3.6137562E+01
 3.6870373E+01  3.6316940E+01
 3.6889511E+01  3.6417057E+01
 3.6908649E+01  3.6340485E+01
 3.6927792E+01  3.6314289E+01
 3.6946930E+01  3.6501480E+01
 3.6966068E+01  3.6675571E+01
 3.6985207E+01  3.6635197E+01
 3.7004345E+01  3.6839817E+01
 3.7023483E+01  3.7149632E+01
 3.7042622E+01  3.7275669E+01
 3.7061760E+01  3.7499664E+01
 3.7080898E+01  3.8163448E+01
 3.7100037E+01  3.9277538E+01
 3.7119175E+01  4.0773312E+01
 3.7138313E+01  4.3201962E+01
 3.7157452E+01  4.6773003E+01
 3.7176590E+01  5.0261864E+01
 3.7195728E+01  5.1504265E+01
 3.7214867E+01  5.0345387E+01
 3.7234005E+01  4.7347771E+01
 3.7253143E+01  4.3984482E+01
 3.7272282E+01  4.1350983E+01
 3.7291420E+01  3.9811104E+01
 3.7310562E+01  3.8722939E+01
 3.7329700E+01  3.8137226E+01
 3.7348839E+01  3.7778385E+01
 3.7367977E+01  3.7545353E+01
 3.7387115E+01  3.7384991E+01
 3.7406254E+01  3.7235142E+01
 3.7425392E+01  3.7266384E+01
 3.7444530E+01  3.7284954E+01
 3.7463669E+01  3.7216461E+01
 3.7482807E+01  3.7197422E+01
 3.7501945E+01  3.7247093E+01
 3.7521084E+01  3.7338249E+01
 3.7540222E+01  3.7550484E+01
 3.7559361E+01  3.7761189E+01
 3.7578499E+01  3.7861866E+01
 3.7597637E+01  3.8040100E+01
 3.7616776E+01  3.8052174E+01
 3.7635914E+01  3.8083595E+01
 3.7655052E+01  3.8303108E+01
 3.7674194E+01  3.8458485E+01
 3.7693333E+01  3.8293713E+01
 3.7712471E+01  3.8336903E+01
 3.7731609E+01  3.8512821E+01
 3.7750748E+01  3.8337219E+01
 3.7769886E+01  3.8220688E+01
 3.7789024E+01  3.8222935E+01
 3.7808163E+01  3.8032520E+01
 3.7827301E+01  3.7734612E+01
 3.7846439E+01  3.7679100E+01
 3.7865578E+01  3.7558178E+01
 3.7884716E+01  3.7417789E+01
 3.7903854E+01  3.7282249E+01
 3.7922993E+01  3.7119514E+01
 3.7942131E+01  3.7024632E+01
 3.7961269E+01  3.7101971E+01
 3.7980408E+01  3.7076778E+01
 3.7999546E+01  3.7026608E+01
 3.8018684E+01  3.6994682E+01
 3.8037823E+01  3.6883774E+01
 3.8056965E+01  3.6793945E+01
 3.8076103E+01  3.6784508E+01
 3.8095242E+01  3.6761814E+01
 3.8114380E+01  3.6719307E+01
 3.8133518E+01  3.6697495E+01
 3.8152657E+01  3.6668179E+01
 3.8171795E+01  3.6830406E+01
 3.8190933E+01  3.6696629E+01
 3.8210072E+01  3.6926968E+01
 3.8229210E+01  3.6943245E+01
 3.8248348E+01  3.7000076E+01
 3.8267487E+01  3.7023952E+01
 3.8286625E+01  3.7141106E+01
 3.8305763E+01  3.7327915E+01
 3.8324902E+01  3.7354168E+01
 3.8344040E+01  3.7320435E+01
 3.8363178E+01  3.7325920E+01
 3.8382317E+01  3.7311169E+01
 3.8401455E+01  3.7203571E+01
 3.8420593E+01  3.7178802E+01
 3.8439735E+01  3.7283066E+01
 3.8458874E+01  3.7334011E+01
 3.8478012E+01  3.7264450E+01
 3.8497150E+01  3.7285385E+01
 3.8516289E+01  3.7369980E+01
 3.8535427E+01  3.7463680E+01
 3.8554565E+01  3.7620556E+01
 3.8573704E+01  3.7447803E+01
 3.8592842E+01  3.7206535E+01
 3.8611980E+01  3.7039696E+01
 3.8631119E+01  3.7065773E+01
 3.8650257E+01  3.7068653E+01
 3.8669395E+01  3.6998882E+01
 3.8688534E+01  3.6889050E+01
 3.8707672E+01  3.6694515E+01
 3.8726810E+01  3.6543629E+01
 3.8745949E+01  3.6588707E+01
 3.8765087E+01  3.6616390E+01
 3.8784225E+01  3.6874977E+01
 3.8803364E+01  3.6676598E+01
 3.8822506E+01  3.6665615E+01
 3.8841644E+01  3.6817135E+01
 3.8860783E+01  3.6655846E+01
 3.8879921E+01  3.6530262E+01
 3.8899059E+01  3.6523190E+01
 3.8918198E+01  3.6530392E+01
 3.8937336E+01  3.6740170E+01
 3.8956474E+01  3.6717381E+01
 3.8975613E+01  3.6838234E+01
 3.8994751E+01  3.6976662E+01
 3.9013889E+01  3.6804413E+01
 3.9033028E+01  3.6721756E+01
 3.9052166E+01  3.6665096E+01
 3.9071304E+01  3.7146088E+01
 3.9090443E+01  3.7251137E+01
 3.9109581E+01  3.7155998E+01
 3.9128719E+01  3.7147533E+01
 3.9147858E+01  3.7013176E+01
 3.9166996E+01  3.7225567E+01
 3.9186134E+01  3.7187420E+01
 3.9205276E+01  3.7056297E+01
 3.9224415E+01  3.6696980E+01
 3.9243553E+01  3.6721184E+01
 3.9262691E+01  3.6964127E+01
 3.9281830E+01  3.6884205E+01
 3.9300968E+01  3.6611671E+01
 3.9320107E+01  3.6658909E+01
 3.9339245E+01  3.6549492E+01
 3.9358383E+01  3.6592140E+01
 3.9377522E+01  3.6784611E+01
 3.9396660E+01  3.6835724E+01
 3.9415798E+01  3.6763439E+01
 3.9434937E+01  3.6914253E+01
 3.9454075E+01  3.7161022E+01
 3.9473213E+01  3.7237213E+01
 3.9492352E+01  3.6961864E+01
 3.9511490E+01  3.7040051E+01
 3.9530628E+01  3.7269318E+01
 3.9549767E+01  3.7237537E+01
 3.9568905E+01  3.7126305E+01
 3.9588047E+01  3.7015415E+01
 3.9607185E+01  3.7087875E+01
 3.9626324E+01  3.7341000E+01
 3.9645462E+01  3.7277000E+01
 3.9664600E+01  3.7257046E+01
 3.9683739E+01  3.7110157E+01
 3.9702877E+01  3.7033875E+01
 3.9722015E+01  3.6977116E+01
 3.9741154E+01  3.7012173E+01
 3.9760292E+01  3.7359333E+01
 3.9779430E+01  3.7522839E+01
 3.9798569E+01  3.7420990E+01
 3.9817707E+01  3.7429218E+01
 3.9836845E+01  3.7287567E+01
 3.9855984E+01  3.7435905E+01
 3.9875122E+01  3.7646431E+01
 3.9894260E+01  3.7456097E+01
 3.9913399E+01  3.7368149E+01
 3.9932537E+01  3.7462990E+01
 3.9951675E+01  3.7537369E+01
 3.9970818E+01  3.7450172E+01
 3.9989956E+01  3.7250065E+01
 4.0009094E+01  3.7383778E+01
 4.0028233E+01  3.7188786E+01
 4.0047371E+01  3.7340782E+01
 4.0066509E+01  3.7353783E+01
 4.0085648E+01  3.7158737E+01
 4.0104786E+01  3.7004345E+01
 4.0123924E+01  3.7111256E+01
 4.0143063E+01  3.7115402E+01
 4.0162201E+01  3.7269493E+01
 4.0181339E+01  3.7447567E+01
 4.0200478E+01  3.7600006E+01
 4.0219616E+01  3.7527359E+01
 4.0238754E+01  3.7461254E+01
 4.0257893E+01  3.7842556E+01
 4.0277031E+01  3.8175297E+01
 4.0296169E+01  3.8437717E+01
 4.0315308E+01  3.8704300E+01
 4.0334446E+01  3.9268131E+01
 4.0353588E+01  3.9394348E+01
 4.0372726E+01  3.8955959E+01
 4.0391865E+01  3.8294624E+01
 4.0411003E+01  3.8021366E+01
 4.0430141E+01  3.8187801E+01
 4.0449280E+01  3.7733940E+01
 4.0468418E+01  3.7762642E+01
 4.0487556E+01  3.7358078E+01
 4.0506695E+01  3.7119251E+01
 4.0525833E+01  3.7231415E+01
 4.0544971E+01  3.7314587E+01
 4.0564110E+01  3.7105240E+01
 4.0583248E+01  3.7135616E+01
 4.0602386E+01  3.7018158E+01
 4.0621525E+01  3.7432072E+01
 4.0640663E+01  3.7390732E+01
 4.0659801E+01  3.7240799E+01
 4.0678940E+01  3.7507412E+01
 4.0698078E+01  3.7874886E+01
 4.0717216E+01  3.7555862E+01
 4.0736359E+01  3.7385372E+01
 4.0755497E+01  3.7421429E+01
 4.0774635E+01  3.7662735E+01
 4.0793774E+01  3.7370476E+01
 4.0812912E+01  3.7515461E+01
 4.0832050E+01  3.7866390E+01
 4.0851189E+01  3.7488327E+01
 4.0870327E+01  3.7781891E+01
 4.0889465E+01  3.8094856E+01
 4.0908604E+01  3.7911880E+01
 4.0927742E+01  3.7792782E+01
 4.0946880E+01  3.7929028E+01
 4.0966019E+01  3.7940662E+01
 4.0985157E+01  3.7912094E+01
 4.1004295E+01  3.8145199E+01
 4.1023434E+01  3.8269081E+01
 4.1042572E+01  3.7929852E+01
 4.1061710E+01  3.8009300E+01
 4.1080849E+01  3.8226101E+01
 4.1099991E+01  3.8015728E+01
 4.1119129E+01  3.8135605E+01
 4.1138268E+01  3.8023018E+01
 4.1157406E+01  3.7402489E+01
 4.1176544E+01  3.7300327E+01
 4.1195683E+01  3.6936459E+01
 4.1214821E+01  3.6510448E+01
 4.1233959E+01  3.6487495E+01
 4.1253098E+01  3.6199562E+01
 4.1272236E+01  3.6318653E+01
 4.1291374E+01  3.7100037E+01
 4.1310513E+01  3.6892406E+01
 4.1329651E+01  3.7585472E+01
 4.1348789E+01  3.6793434E+01
 4.1367928E+01  3.6711182E+01
 4.1387066E+01  3.7015781E+01
 4.1406204E+01  3.6370197E+01
 4.1425343E+01  3.6752205E+01
 4.1444481E+01  3.5689178E+01
 4.1463619E+01  3.4660774E+01
 4.1482761E+01  3.4252136E+01
 4.1501900E+01  3.4992443E+01
 4.1521038E+01  3.5657242E+01
 4.1540176E+01  3.6054867E+01
 4.1559315E+01  3.6278286E+01
 4.1578453E+01  3.6267105E+01
 4.1597591E+01  3.4983757E+01
 4.1616730E+01  3.4082390E+01
 4.1635868E+01  3.2911766E+01
 4.1655006E+01  3.3457741E+01
 4.1674145E+01  3.2177700E+01
 4.1693283E+01  3.2064415E+01
 4.1712421E+01  3.2102249E+01
 4.1731560E+01  2.8937029E+01
 4.1750698E+01  3.0534719E+01
 4.1769836E+01  2.9469357E+01
 4.1788975E+01  2.7031456E+01
 4.1808113E+01  2.4036621E+01
 4.1827251E+01  2.1822927E+01
 4.1846390E+01  2.6273333E+01
 4.1865532E+01  0.0000000E+00
 4.1884670E+01  0.0000000E+00
 4.1903809E+01  0.0000000E+00
 4.1922947E+01  0.0000000E+00
