\\scl1\service30\SAXS\2013_05\Marccd\Mai13__00084.mccd: Q-Space Scan
Q (Inverse Nanometres)
Intensity
       2204
 1.1822268E-02  0.0000000E+00
 3.5466805E-02  0.0000000E+00
 5.9111342E-02  0.0000000E+00
 8.2755879E-02  0.0000000E+00
 1.0640042E-01  0.0000000E+00
 1.3004495E-01  0.0000000E+00
 1.5368949E-01  0.0000000E+00
 1.7733403E-01  0.0000000E+00
 2.0097856E-01  0.0000000E+00
 2.2462310E-01  0.0000000E+00
 2.4826764E-01  0.0000000E+00
 2.7191216E-01  0.0000000E+00
 2.9555672E-01  0.0000000E+00
 3.1920123E-01  0.0000000E+00
 3.4284580E-01  0.0000000E+00
 3.6649030E-01  0.0000000E+00
 3.9013487E-01  0.0000000E+00
 4.1377938E-01  0.0000000E+00
 4.3742394E-01  0.0000000E+00
 4.6106845E-01  0.0000000E+00
 4.8471302E-01  0.0000000E+00
 5.0835752E-01  0.0000000E+00
 5.3200209E-01  0.0000000E+00
 5.5564660E-01  0.0000000E+00
 5.7929116E-01  0.0000000E+00
 6.0293567E-01  0.0000000E+00
 6.2658024E-01  0.0000000E+00
 6.5022475E-01  0.0000000E+00
 6.7386931E-01  0.0000000E+00
 6.9751382E-01  0.0000000E+00
 7.2115839E-01  0.0000000E+00
 7.4480289E-01  0.0000000E+00
 7.6844746E-01  0.0000000E+00
 7.9209197E-01  0.0000000E+00
 8.1573653E-01  0.0000000E+00
 8.3938104E-01  0.0000000E+00
 8.6302561E-01  0.0000000E+00
 8.8667011E-01  0.0000000E+00
 9.1031468E-01  0.0000000E+00
 9.3395919E-01  0.0000000E+00
 9.5760375E-01  0.0000000E+00
 9.8124826E-01  0.0000000E+00
 1.0048928E+00  0.0000000E+00
 1.0285374E+00  0.0000000E+00
 1.0521818E+00  0.0000000E+00
 1.0758264E+00  0.0000000E+00
 1.0994710E+00  0.0000000E+00
 1.1231155E+00  0.0000000E+00
 1.1467600E+00  0.0000000E+00
 1.1704046E+00  0.0000000E+00
 1.1940491E+00  0.0000000E+00
 1.2176937E+00  0.0000000E+00
 1.2413381E+00  0.0000000E+00
 1.2649827E+00  0.0000000E+00
 1.2886273E+00  0.0000000E+00
 1.3122718E+00  0.0000000E+00
 1.3359163E+00  0.0000000E+00
 1.3595608E+00  0.0000000E+00
 1.3832054E+00  0.0000000E+00
 1.4068500E+00  0.0000000E+00
 1.4304944E+00  0.0000000E+00
 1.4541390E+00  0.0000000E+00
 1.4777836E+00  0.0000000E+00
 1.5014281E+00  0.0000000E+00
 1.5250726E+00  0.0000000E+00
 1.5487171E+00  0.0000000E+00
 1.5723617E+00  0.0000000E+00
 1.5960063E+00  0.0000000E+00
 1.6196507E+00  0.0000000E+00
 1.6432953E+00  0.0000000E+00
 1.6669399E+00  0.0000000E+00
 1.6905844E+00  0.0000000E+00
 1.7142289E+00  0.0000000E+00
 1.7378734E+00  0.0000000E+00
 1.7615180E+00  0.0000000E+00
 1.7851626E+00  0.0000000E+00
 1.8088070E+00  0.0000000E+00
 1.8324516E+00  0.0000000E+00
 1.8560961E+00  0.0000000E+00
 1.8797407E+00  0.0000000E+00
 1.9033852E+00  1.1704641E+02
 1.9270297E+00  1.1546642E+02
 1.9506743E+00  1.1570850E+02
 1.9743189E+00  1.0308985E+02
 1.9979633E+00  1.0226661E+02
 2.0216079E+00  1.0629889E+02
 2.0452523E+00  1.1045931E+02
 2.0688970E+00  1.1334158E+02
 2.0925415E+00  1.1504596E+02
 2.1161861E+00  1.1472031E+02
 2.1398306E+00  1.1351647E+02
 2.1634750E+00  1.1018633E+02
 2.1871197E+00  1.0549445E+02
 2.2107642E+00  1.0385709E+02
 2.2344086E+00  1.0228983E+02
 2.2580533E+00  1.0058102E+02
 2.2816978E+00  1.0095160E+02
 2.3053424E+00  1.0101777E+02
 2.3289869E+00  9.9787292E+01
 2.3526313E+00  9.8973686E+01
 2.3762760E+00  9.8875519E+01
 2.3999205E+00  9.8618698E+01
 2.4235649E+00  9.7946815E+01
 2.4472096E+00  9.7749931E+01
 2.4708540E+00  9.6502525E+01
 2.4944987E+00  9.5596748E+01
 2.5181432E+00  9.5528084E+01
 2.5417876E+00  9.5609779E+01
 2.5654323E+00  9.5410767E+01
 2.5890768E+00  9.4817604E+01
 2.6127212E+00  9.4299690E+01
 2.6363659E+00  9.3678795E+01
 2.6600103E+00  9.2350700E+01
 2.6836550E+00  9.0743904E+01
 2.7072995E+00  9.0088318E+01
 2.7309439E+00  9.0565971E+01
 2.7545886E+00  9.0780617E+01
 2.7782331E+00  9.0444214E+01
 2.8018775E+00  8.9744370E+01
 2.8255222E+00  8.9507240E+01
 2.8491666E+00  8.9316986E+01
 2.8728113E+00  8.9029259E+01
 2.8964558E+00  8.9183372E+01
 2.9201002E+00  8.9231941E+01
 2.9437449E+00  8.8766968E+01
 2.9673893E+00  8.8430176E+01
 2.9910338E+00  8.8212845E+01
 3.0146785E+00  8.7742752E+01
 3.0383229E+00  8.7815216E+01
 3.0619676E+00  8.8063225E+01
 3.0856121E+00  8.8156128E+01
 3.1092565E+00  8.8016815E+01
 3.1329012E+00  8.7815216E+01
 3.1565456E+00  8.7802467E+01
 3.1801901E+00  8.7779480E+01
 3.2038348E+00  8.8073051E+01
 3.2274792E+00  8.8337326E+01
 3.2511239E+00  8.8337967E+01
 3.2747684E+00  8.7923241E+01
 3.2984128E+00  8.7635735E+01
 3.3220575E+00  8.7857338E+01
 3.3457019E+00  8.7966812E+01
 3.3693464E+00  8.7945061E+01
 3.3929911E+00  8.7816322E+01
 3.4166355E+00  8.7906441E+01
 3.4402802E+00  8.8175232E+01
 3.4639246E+00  8.8286240E+01
 3.4875691E+00  8.8429054E+01
 3.5112138E+00  8.8659981E+01
 3.5348582E+00  8.8719521E+01
 3.5585027E+00  8.8569878E+01
 3.5821474E+00  8.8502159E+01
 3.6057918E+00  8.8416718E+01
 3.6294365E+00  8.8578384E+01
 3.6530809E+00  8.8812004E+01
 3.6767254E+00  8.9099281E+01
 3.7003701E+00  8.9206429E+01
 3.7240145E+00  8.9402000E+01
 3.7476590E+00  8.9491661E+01
 3.7713037E+00  8.9680908E+01
 3.7949481E+00  8.9869644E+01
 3.8185928E+00  8.9865753E+01
 3.8422372E+00  8.9753868E+01
 3.8658817E+00  9.0050438E+01
 3.8895264E+00  9.0358238E+01
 3.9131708E+00  9.0537239E+01
 3.9368153E+00  9.0700066E+01
 3.9604599E+00  9.0924232E+01
 3.9841044E+00  9.1252678E+01
 4.0077491E+00  9.1319504E+01
 4.0313935E+00  9.1591751E+01
 4.0550380E+00  9.1784073E+01
 4.0786824E+00  9.1922577E+01
 4.1023273E+00  9.2082047E+01
 4.1259718E+00  9.2313339E+01
 4.1496162E+00  9.2602051E+01
 4.1732607E+00  9.2685814E+01
 4.1969051E+00  9.2925766E+01
 4.2205496E+00  9.2973679E+01
 4.2441945E+00  9.3211189E+01
 4.2678390E+00  9.3431038E+01
 4.2914834E+00  9.3736107E+01
 4.3151278E+00  9.3982269E+01
 4.3387723E+00  9.4276596E+01
 4.3624172E+00  9.4429901E+01
 4.3860617E+00  9.4450768E+01
 4.4097061E+00  9.4755180E+01
 4.4333506E+00  9.5361992E+01
 4.4569950E+00  9.5618805E+01
 4.4806399E+00  9.5795158E+01
 4.5042844E+00  9.5937775E+01
 4.5279288E+00  9.6316269E+01
 4.5515733E+00  9.6707397E+01
 4.5752177E+00  9.7006584E+01
 4.5988622E+00  9.7178368E+01
 4.6225071E+00  9.7288086E+01
 4.6461515E+00  9.7583893E+01
 4.6697960E+00  9.7747498E+01
 4.6934404E+00  9.7735931E+01
 4.7170849E+00  9.8015572E+01
 4.7407298E+00  9.8546432E+01
 4.7643743E+00  9.9108643E+01
 4.7880187E+00  9.9511726E+01
 4.8116632E+00  9.9733406E+01
 4.8353076E+00  9.9993126E+01
 4.8589525E+00  1.0012263E+02
 4.8825970E+00  1.0046426E+02
 4.9062414E+00  1.0100332E+02
 4.9298859E+00  1.0145721E+02
 4.9535303E+00  1.0184972E+02
 4.9771748E+00  1.0202256E+02
 5.0008197E+00  1.0222511E+02
 5.0244641E+00  1.0256187E+02
 5.0481086E+00  1.0284811E+02
 5.0717530E+00  1.0331139E+02
 5.0953975E+00  1.0358923E+02
 5.1190424E+00  1.0378979E+02
 5.1426868E+00  1.0406448E+02
 5.1663313E+00  1.0446194E+02
 5.1899757E+00  1.0506404E+02
 5.2136202E+00  1.0549297E+02
 5.2372651E+00  1.0561407E+02
 5.2609096E+00  1.0578873E+02
 5.2845540E+00  1.0585137E+02
 5.3081985E+00  1.0609149E+02
 5.3318429E+00  1.0664674E+02
 5.3554873E+00  1.0693951E+02
 5.3791323E+00  1.0715323E+02
 5.4027767E+00  1.0741244E+02
 5.4264212E+00  1.0796773E+02
 5.4500656E+00  1.0852077E+02
 5.4737101E+00  1.0904231E+02
 5.4973550E+00  1.0962216E+02
 5.5209994E+00  1.1020872E+02
 5.5446439E+00  1.1056110E+02
 5.5682883E+00  1.1085159E+02
 5.5919328E+00  1.1106626E+02
 5.6155777E+00  1.1137238E+02
 5.6392221E+00  1.1173562E+02
 5.6628666E+00  1.1219608E+02
 5.6865110E+00  1.1268955E+02
 5.7101555E+00  1.1308451E+02
 5.7337999E+00  1.1354329E+02
 5.7574449E+00  1.1383117E+02
 5.7810893E+00  1.1422712E+02
 5.8047338E+00  1.1475447E+02
 5.8283782E+00  1.1531515E+02
 5.8520226E+00  1.1574757E+02
 5.8756676E+00  1.1600237E+02
 5.8993120E+00  1.1620892E+02
 5.9229565E+00  1.1651981E+02
 5.9466009E+00  1.1708018E+02
 5.9702454E+00  1.1767638E+02
 5.9938903E+00  1.1822321E+02
 6.0175347E+00  1.1858350E+02
 6.0411792E+00  1.1894832E+02
 6.0648236E+00  1.1933357E+02
 6.0884681E+00  1.1952980E+02
 6.1121125E+00  1.1997575E+02
 6.1357574E+00  1.2064687E+02
 6.1594019E+00  1.2114142E+02
 6.1830463E+00  1.2156631E+02
 6.2066908E+00  1.2203971E+02
 6.2303352E+00  1.2263033E+02
 6.2539802E+00  1.2321552E+02
 6.2776246E+00  1.2372043E+02
 6.3012691E+00  1.2413745E+02
 6.3249135E+00  1.2457298E+02
 6.3485579E+00  1.2511469E+02
 6.3722029E+00  1.2578078E+02
 6.3958473E+00  1.2645178E+02
 6.4194918E+00  1.2679449E+02
 6.4431362E+00  1.2716665E+02
 6.4667807E+00  1.2763554E+02
 6.4904251E+00  1.2799685E+02
 6.5140700E+00  1.2857149E+02
 6.5377145E+00  1.2921867E+02
 6.5613589E+00  1.2970761E+02
 6.5850034E+00  1.3024893E+02
 6.6086478E+00  1.3094020E+02
 6.6322927E+00  1.3161395E+02
 6.6559372E+00  1.3207635E+02
 6.6795816E+00  1.3241769E+02
 6.7032261E+00  1.3294084E+02
 6.7268705E+00  1.3356366E+02
 6.7505155E+00  1.3419232E+02
 6.7741599E+00  1.3497144E+02
 6.7978044E+00  1.3543462E+02
 6.8214488E+00  1.3578806E+02
 6.8450933E+00  1.3626480E+02
 6.8687377E+00  1.3679568E+02
 6.8923826E+00  1.3738191E+02
 6.9160271E+00  1.3784912E+02
 6.9396715E+00  1.3857112E+02
 6.9633160E+00  1.3927731E+02
 6.9869604E+00  1.3979823E+02
 7.0106053E+00  1.4032693E+02
 7.0342498E+00  1.4118355E+02
 7.0578942E+00  1.4194528E+02
 7.0815387E+00  1.4260765E+02
 7.1051831E+00  1.4320215E+02
 7.1288280E+00  1.4368652E+02
 7.1524725E+00  1.4413002E+02
 7.1761169E+00  1.4487766E+02
 7.1997614E+00  1.4571317E+02
 7.2234058E+00  1.4653595E+02
 7.2470503E+00  1.4721796E+02
 7.2706952E+00  1.4767227E+02
 7.2943397E+00  1.4816779E+02
 7.3179841E+00  1.4871501E+02
 7.3416286E+00  1.4950641E+02
 7.3652730E+00  1.5025311E+02
 7.3889179E+00  1.5085519E+02
 7.4125624E+00  1.5152641E+02
 7.4362068E+00  1.5239389E+02
 7.4598513E+00  1.5305724E+02
 7.4834957E+00  1.5372249E+02
 7.5071406E+00  1.5438135E+02
 7.5307851E+00  1.5521719E+02
 7.5544295E+00  1.5609348E+02
 7.5780740E+00  1.5671034E+02
 7.6017184E+00  1.5714847E+02
 7.6253629E+00  1.5798746E+02
 7.6490078E+00  1.5857617E+02
 7.6726522E+00  1.5917270E+02
 7.6962967E+00  1.6012257E+02
 7.7199411E+00  1.6082944E+02
 7.7435856E+00  1.6129199E+02
 7.7672305E+00  1.6177391E+02
 7.7908750E+00  1.6267468E+02
 7.8145194E+00  1.6364655E+02
 7.8381639E+00  1.6435498E+02
 7.8618083E+00  1.6489229E+02
 7.8854532E+00  1.6545363E+02
 7.9090977E+00  1.6618591E+02
 7.9327421E+00  1.6704042E+02
 7.9563866E+00  1.6772632E+02
 7.9800310E+00  1.6846420E+02
 8.0036755E+00  1.6915321E+02
 8.0273199E+00  1.6987576E+02
 8.0509644E+00  1.7085837E+02
 8.0746098E+00  1.7167548E+02
 8.0982542E+00  1.7240746E+02
 8.1218987E+00  1.7312877E+02
 8.1455431E+00  1.7420300E+02
 8.1691875E+00  1.7520836E+02
 8.1928320E+00  1.7601624E+02
 8.2164764E+00  1.7682008E+02
 8.2401209E+00  1.7746295E+02
 8.2637653E+00  1.7826709E+02
 8.2874098E+00  1.7907063E+02
 8.3110542E+00  1.7966391E+02
 8.3346996E+00  1.8020021E+02
 8.3583441E+00  1.8105916E+02
 8.3819885E+00  1.8203859E+02
 8.4056330E+00  1.8279390E+02
 8.4292774E+00  1.8361516E+02
 8.4529219E+00  1.8454044E+02
 8.4765663E+00  1.8563474E+02
 8.5002108E+00  1.8678674E+02
 8.5238552E+00  1.8776625E+02
 8.5474997E+00  1.8825269E+02
 8.5711441E+00  1.8895155E+02
 8.5947895E+00  1.8960646E+02
 8.6184340E+00  1.9023259E+02
 8.6420784E+00  1.9075330E+02
 8.6657228E+00  1.9154999E+02
 8.6893673E+00  1.9268285E+02
 8.7130117E+00  1.9364209E+02
 8.7366562E+00  1.9443456E+02
 8.7603006E+00  1.9544853E+02
 8.7839451E+00  1.9623904E+02
 8.8075895E+00  1.9695703E+02
 8.8312349E+00  1.9749399E+02
 8.8548794E+00  1.9829004E+02
 8.8785238E+00  1.9928217E+02
 8.9021683E+00  2.0023251E+02
 8.9258127E+00  2.0125333E+02
 8.9494572E+00  2.0239116E+02
 8.9731016E+00  2.0329245E+02
 8.9967461E+00  2.0396683E+02
 9.0203905E+00  2.0481686E+02
 9.0440350E+00  2.0574269E+02
 9.0676794E+00  2.0674658E+02
 9.0913248E+00  2.0775955E+02
 9.1149693E+00  2.0886824E+02
 9.1386137E+00  2.0990154E+02
 9.1622581E+00  2.1089090E+02
 9.1859026E+00  2.1194919E+02
 9.2095470E+00  2.1301756E+02
 9.2331915E+00  2.1394640E+02
 9.2568359E+00  2.1502968E+02
 9.2804804E+00  2.1609554E+02
 9.3041248E+00  2.1709337E+02
 9.3277693E+00  2.1791302E+02
 9.3514147E+00  2.1890398E+02
 9.3750591E+00  2.2017403E+02
 9.3987036E+00  2.2128452E+02
 9.4223480E+00  2.2233282E+02
 9.4459925E+00  2.2351663E+02
 9.4696369E+00  2.2483643E+02
 9.4932814E+00  2.2593073E+02
 9.5169258E+00  2.2691537E+02
 9.5405703E+00  2.2775354E+02
 9.5642147E+00  2.2893279E+02
 9.5878601E+00  2.3021341E+02
 9.6115046E+00  2.3143004E+02
 9.6351490E+00  2.3266176E+02
 9.6587934E+00  2.3393945E+02
 9.6824379E+00  2.3524094E+02
 9.7060823E+00  2.3663654E+02
 9.7297268E+00  2.3807387E+02
 9.7533712E+00  2.3926248E+02
 9.7770157E+00  2.4043265E+02
 9.8006601E+00  2.4173422E+02
 9.8243046E+00  2.4309180E+02
 9.8479500E+00  2.4454686E+02
 9.8715944E+00  2.4605952E+02
 9.8952389E+00  2.4745155E+02
 9.9188833E+00  2.4877887E+02
 9.9425278E+00  2.5041974E+02
 9.9661722E+00  2.5190385E+02
 9.9898167E+00  2.5333557E+02
 1.0013461E+01  2.5483458E+02
 1.0037106E+01  2.5616357E+02
 1.0060750E+01  2.5762192E+02
 1.0084394E+01  2.5923044E+02
 1.0108040E+01  2.6083945E+02
 1.0131684E+01  2.6237048E+02
 1.0155329E+01  2.6385336E+02
 1.0178973E+01  2.6530783E+02
 1.0202618E+01  2.6702872E+02
 1.0226262E+01  2.6889221E+02
 1.0249907E+01  2.7072461E+02
 1.0273551E+01  2.7247549E+02
 1.0297195E+01  2.7403372E+02
 1.0320840E+01  2.7576776E+02
 1.0344485E+01  2.7771100E+02
 1.0368130E+01  2.7962735E+02
 1.0391774E+01  2.8146500E+02
 1.0415419E+01  2.8297906E+02
 1.0439063E+01  2.8475201E+02
 1.0462708E+01  2.8683514E+02
 1.0486352E+01  2.8874805E+02
 1.0509996E+01  2.9057190E+02
 1.0533641E+01  2.9241412E+02
 1.0557285E+01  2.9442603E+02
 1.0580930E+01  2.9640021E+02
 1.0604575E+01  2.9842786E+02
 1.0628220E+01  3.0021091E+02
 1.0651864E+01  3.0194089E+02
 1.0675508E+01  3.0397122E+02
 1.0699153E+01  3.0615552E+02
 1.0722797E+01  3.0822318E+02
 1.0746442E+01  3.1028430E+02
 1.0770086E+01  3.1235196E+02
 1.0793731E+01  3.1449448E+02
 1.0817375E+01  3.1670859E+02
 1.0841020E+01  3.1882880E+02
 1.0864665E+01  3.2102917E+02
 1.0888309E+01  3.2330215E+02
 1.0911954E+01  3.2551276E+02
 1.0935598E+01  3.2769772E+02
 1.0959243E+01  3.2969998E+02
 1.0982887E+01  3.3168512E+02
 1.1006532E+01  3.3388687E+02
 1.1030176E+01  3.3622614E+02
 1.1053821E+01  3.3850027E+02
 1.1077465E+01  3.4084058E+02
 1.1101110E+01  3.4314972E+02
 1.1124755E+01  3.4535974E+02
 1.1148399E+01  3.4760223E+02
 1.1172044E+01  3.4979977E+02
 1.1195688E+01  3.5207693E+02
 1.1219333E+01  3.5420816E+02
 1.1242977E+01  3.5643915E+02
 1.1266622E+01  3.5884995E+02
 1.1290266E+01  3.6171210E+02
 1.1313910E+01  3.6429932E+02
 1.1337555E+01  3.6641043E+02
 1.1361200E+01  3.6828372E+02
 1.1384845E+01  3.7032126E+02
 1.1408489E+01  3.7235349E+02
 1.1432134E+01  3.7453156E+02
 1.1455778E+01  3.7685175E+02
 1.1479423E+01  3.7914990E+02
 1.1503067E+01  3.8140152E+02
 1.1526711E+01  3.8369388E+02
 1.1550356E+01  3.8594659E+02
 1.1574000E+01  3.8823425E+02
 1.1597645E+01  3.9054214E+02
 1.1621290E+01  3.9302356E+02
 1.1644935E+01  3.9518295E+02
 1.1668579E+01  3.9722394E+02
 1.1692224E+01  3.9951227E+02
 1.1715868E+01  4.0190649E+02
 1.1739512E+01  4.0413177E+02
 1.1763157E+01  4.0614539E+02
 1.1786801E+01  4.0801541E+02
 1.1810446E+01  4.0999496E+02
 1.1834090E+01  4.1189539E+02
 1.1857736E+01  4.1384280E+02
 1.1881380E+01  4.1582394E+02
 1.1905025E+01  4.1795676E+02
 1.1928669E+01  4.2003558E+02
 1.1952313E+01  4.2208112E+02
 1.1975958E+01  4.2379419E+02
 1.1999602E+01  4.2544290E+02
 1.2023247E+01  4.2725177E+02
 1.2046891E+01  4.2912369E+02
 1.2070536E+01  4.3088937E+02
 1.2094180E+01  4.3246597E+02
 1.2117826E+01  4.3412375E+02
 1.2141470E+01  4.3564459E+02
 1.2165114E+01  4.3728729E+02
 1.2188759E+01  4.3875366E+02
 1.2212403E+01  4.3989697E+02
 1.2236048E+01  4.4133517E+02
 1.2259692E+01  4.4294159E+02
 1.2283337E+01  4.4414490E+02
 1.2306981E+01  4.4524991E+02
 1.2330626E+01  4.4655063E+02
 1.2354270E+01  4.4801392E+02
 1.2377915E+01  4.4963004E+02
 1.2401560E+01  4.5096567E+02
 1.2425204E+01  4.5206171E+02
 1.2448849E+01  4.5299252E+02
 1.2472493E+01  4.5388843E+02
 1.2496138E+01  4.5484238E+02
 1.2519782E+01  4.5574463E+02
 1.2543427E+01  4.5661642E+02
 1.2567071E+01  4.5738269E+02
 1.2590715E+01  4.5802472E+02
 1.2614361E+01  4.5862970E+02
 1.2638005E+01  4.5930417E+02
 1.2661650E+01  4.5979367E+02
 1.2685294E+01  4.6042523E+02
 1.2708939E+01  4.6144769E+02
 1.2732583E+01  4.6239661E+02
 1.2756227E+01  4.6304630E+02
 1.2779872E+01  4.6345950E+02
 1.2803516E+01  4.6364127E+02
 1.2827161E+01  4.6396378E+02
 1.2850805E+01  4.6428809E+02
 1.2874451E+01  4.6435635E+02
 1.2898095E+01  4.6459656E+02
 1.2921740E+01  4.6459589E+02
 1.2945384E+01  4.6451685E+02
 1.2969028E+01  4.6453760E+02
 1.2992673E+01  4.6485233E+02
 1.3016317E+01  4.6528119E+02
 1.3039962E+01  4.6545935E+02
 1.3063606E+01  4.6529480E+02
 1.3087251E+01  4.6515692E+02
 1.3110895E+01  4.6517142E+02
 1.3134541E+01  4.6517615E+02
 1.3158185E+01  4.6506665E+02
 1.3181829E+01  4.6470139E+02
 1.3205474E+01  4.6427011E+02
 1.3229118E+01  4.6407040E+02
 1.3252763E+01  4.6385721E+02
 1.3276407E+01  4.6366577E+02
 1.3300052E+01  4.6319330E+02
 1.3323696E+01  4.6274777E+02
 1.3347341E+01  4.6220599E+02
 1.3370986E+01  4.6194400E+02
 1.3394630E+01  4.6160028E+02
 1.3418275E+01  4.6080389E+02
 1.3441919E+01  4.6023044E+02
 1.3465564E+01  4.5970068E+02
 1.3489208E+01  4.5902258E+02
 1.3512853E+01  4.5836407E+02
 1.3536497E+01  4.5772186E+02
 1.3560142E+01  4.5726126E+02
 1.3583786E+01  4.5671323E+02
 1.3607430E+01  4.5625693E+02
 1.3631076E+01  4.5575998E+02
 1.3654720E+01  4.5502710E+02
 1.3678365E+01  4.5411557E+02
 1.3702009E+01  4.5317883E+02
 1.3725654E+01  4.5227039E+02
 1.3749298E+01  4.5159100E+02
 1.3772943E+01  4.5072540E+02
 1.3796587E+01  4.5011462E+02
 1.3820231E+01  4.4959622E+02
 1.3843876E+01  4.4876593E+02
 1.3867520E+01  4.4797180E+02
 1.3891166E+01  4.4726385E+02
 1.3914810E+01  4.4661151E+02
 1.3938455E+01  4.4554071E+02
 1.3962099E+01  4.4464490E+02
 1.3985744E+01  4.4398236E+02
 1.4009388E+01  4.4327310E+02
 1.4033032E+01  4.4242691E+02
 1.4056677E+01  4.4151605E+02
 1.4080321E+01  4.4054233E+02
 1.4103966E+01  4.3944632E+02
 1.4127611E+01  4.3834396E+02
 1.4151256E+01  4.3726221E+02
 1.4174900E+01  4.3643146E+02
 1.4198545E+01  4.3587036E+02
 1.4222189E+01  4.3501917E+02
 1.4245833E+01  4.3394873E+02
 1.4269478E+01  4.3283704E+02
 1.4293122E+01  4.3207166E+02
 1.4316767E+01  4.3142041E+02
 1.4340411E+01  4.3042477E+02
 1.4364056E+01  4.2939932E+02
 1.4387701E+01  4.2845837E+02
 1.4411345E+01  4.2732742E+02
 1.4434990E+01  4.2649741E+02
 1.4458634E+01  4.2572260E+02
 1.4482279E+01  4.2488507E+02
 1.4505923E+01  4.2393817E+02
 1.4529568E+01  4.2280505E+02
 1.4553212E+01  4.2186682E+02
 1.4576857E+01  4.2115430E+02
 1.4600501E+01  4.2018277E+02
 1.4624146E+01  4.1918201E+02
 1.4647791E+01  4.1820599E+02
 1.4671435E+01  4.1703229E+02
 1.4695080E+01  4.1610492E+02
 1.4718724E+01  4.1503506E+02
 1.4742369E+01  4.1422592E+02
 1.4766013E+01  4.1334918E+02
 1.4789658E+01  4.1219321E+02
 1.4813302E+01  4.1131934E+02
 1.4836946E+01  4.1030219E+02
 1.4860591E+01  4.0916687E+02
 1.4884236E+01  4.0801013E+02
 1.4907881E+01  4.0694916E+02
 1.4931525E+01  4.0594965E+02
 1.4955170E+01  4.0513544E+02
 1.4978814E+01  4.0413876E+02
 1.5002459E+01  4.0320480E+02
 1.5026103E+01  4.0234583E+02
 1.5049747E+01  4.0138239E+02
 1.5073392E+01  4.0058319E+02
 1.5097036E+01  3.9975781E+02
 1.5120681E+01  3.9883917E+02
 1.5144326E+01  3.9788483E+02
 1.5167971E+01  3.9684583E+02
 1.5191615E+01  3.9554495E+02
 1.5215260E+01  3.9435803E+02
 1.5238904E+01  3.9307596E+02
 1.5262548E+01  3.9200549E+02
 1.5286193E+01  3.9091467E+02
 1.5309837E+01  3.8981006E+02
 1.5333482E+01  3.8879047E+02
 1.5357126E+01  3.8787021E+02
 1.5380771E+01  3.8698865E+02
 1.5404416E+01  3.8620728E+02
 1.5428061E+01  3.8485013E+02
 1.5451705E+01  3.8368033E+02
 1.5475349E+01  3.8284039E+02
 1.5498994E+01  3.8181616E+02
 1.5522638E+01  3.8090958E+02
 1.5546283E+01  3.7992767E+02
 1.5569927E+01  3.7881702E+02
 1.5593572E+01  3.7773941E+02
 1.5617216E+01  3.7660986E+02
 1.5640862E+01  3.7566342E+02
 1.5664506E+01  3.7484280E+02
 1.5688150E+01  3.7374631E+02
 1.5711795E+01  3.7289462E+02
 1.5735439E+01  3.7187891E+02
 1.5759084E+01  3.7094333E+02
 1.5782728E+01  3.7002295E+02
 1.5806373E+01  3.6895520E+02
 1.5830017E+01  3.6802460E+02
 1.5853662E+01  3.6683719E+02
 1.5877306E+01  3.6568323E+02
 1.5900951E+01  3.6476810E+02
 1.5924596E+01  3.6363046E+02
 1.5948240E+01  3.6288876E+02
 1.5971885E+01  3.6195685E+02
 1.5995529E+01  3.6095642E+02
 1.6019175E+01  3.6010724E+02
 1.6042818E+01  3.5918661E+02
 1.6066463E+01  3.5812543E+02
 1.6090107E+01  3.5702072E+02
 1.6113752E+01  3.5594382E+02
 1.6137396E+01  3.5506927E+02
 1.6161041E+01  3.5414310E+02
 1.6184685E+01  3.5297824E+02
 1.6208330E+01  3.5187756E+02
 1.6231974E+01  3.5062842E+02
 1.6255619E+01  3.4955405E+02
 1.6279264E+01  3.4855032E+02
 1.6302908E+01  3.4767014E+02
 1.6326553E+01  3.4656601E+02
 1.6350197E+01  3.4551666E+02
 1.6373842E+01  3.4457571E+02
 1.6397486E+01  3.4370441E+02
 1.6421131E+01  3.4280640E+02
 1.6444775E+01  3.4167410E+02
 1.6468420E+01  3.4054480E+02
 1.6492064E+01  3.3938882E+02
 1.6515709E+01  3.3824722E+02
 1.6539354E+01  3.3728308E+02
 1.6562998E+01  3.3626486E+02
 1.6586643E+01  3.3495654E+02
 1.6610287E+01  3.3375470E+02
 1.6633932E+01  3.3285449E+02
 1.6657576E+01  3.3188437E+02
 1.6681221E+01  3.3096487E+02
 1.6704865E+01  3.3007779E+02
 1.6728510E+01  3.2890457E+02
 1.6752153E+01  3.2778479E+02
 1.6775799E+01  3.2677890E+02
 1.6799444E+01  3.2580374E+02
 1.6823088E+01  3.2492148E+02
 1.6846733E+01  3.2398877E+02
 1.6870377E+01  3.2297388E+02
 1.6894022E+01  3.2189713E+02
 1.6917665E+01  3.2087259E+02
 1.6941311E+01  3.1992044E+02
 1.6964954E+01  3.1887384E+02
 1.6988600E+01  3.1789832E+02
 1.7012243E+01  3.1673071E+02
 1.7035889E+01  3.1570264E+02
 1.7059534E+01  3.1486224E+02
 1.7083178E+01  3.1397531E+02
 1.7106823E+01  3.1290652E+02
 1.7130466E+01  3.1188907E+02
 1.7154112E+01  3.1074884E+02
 1.7177755E+01  3.0985623E+02
 1.7201401E+01  3.0926529E+02
 1.7225044E+01  3.0836935E+02
 1.7248690E+01  3.0721811E+02
 1.7272333E+01  3.0618723E+02
 1.7295979E+01  3.0522244E+02
 1.7319624E+01  3.0414169E+02
 1.7343267E+01  3.0290259E+02
 1.7366913E+01  3.0190228E+02
 1.7390556E+01  3.0111133E+02
 1.7414202E+01  3.0023111E+02
 1.7437845E+01  2.9927182E+02
 1.7461491E+01  2.9825089E+02
 1.7485134E+01  2.9739426E+02
 1.7508780E+01  2.9636304E+02
 1.7532425E+01  2.9510870E+02
 1.7556068E+01  2.9397565E+02
 1.7579714E+01  2.9276971E+02
 1.7603357E+01  2.9169092E+02
 1.7627003E+01  2.9087183E+02
 1.7650646E+01  2.9010178E+02
 1.7674292E+01  2.8897940E+02
 1.7697935E+01  2.8777765E+02
 1.7721581E+01  2.8676611E+02
 1.7745224E+01  2.8568274E+02
 1.7768869E+01  2.8483429E+02
 1.7792515E+01  2.8407294E+02
 1.7816158E+01  2.8325653E+02
 1.7839804E+01  2.8229648E+02
 1.7863447E+01  2.8115085E+02
 1.7887093E+01  2.8018811E+02
 1.7910736E+01  2.7897849E+02
 1.7934381E+01  2.7798846E+02
 1.7958025E+01  2.7707275E+02
 1.7981670E+01  2.7614136E+02
 1.8005314E+01  2.7527933E+02
 1.8028959E+01  2.7433017E+02
 1.8052605E+01  2.7326556E+02
 1.8076248E+01  2.7234808E+02
 1.8099894E+01  2.7142694E+02
 1.8123537E+01  2.7034088E+02
 1.8147182E+01  2.6941507E+02
 1.8170826E+01  2.6843161E+02
 1.8194471E+01  2.6741547E+02
 1.8218115E+01  2.6653348E+02
 1.8241760E+01  2.6544351E+02
 1.8265404E+01  2.6441980E+02
 1.8289049E+01  2.6360199E+02
 1.8312695E+01  2.6268423E+02
 1.8336338E+01  2.6180533E+02
 1.8359983E+01  2.6095462E+02
 1.8383627E+01  2.5997583E+02
 1.8407272E+01  2.5904977E+02
 1.8430916E+01  2.5820557E+02
 1.8454561E+01  2.5720584E+02
 1.8478205E+01  2.5616592E+02
 1.8501850E+01  2.5513786E+02
 1.8525494E+01  2.5422823E+02
 1.8549139E+01  2.5324690E+02
 1.8572784E+01  2.5226907E+02
 1.8596428E+01  2.5121622E+02
 1.8620073E+01  2.5037944E+02
 1.8643717E+01  2.4940781E+02
 1.8667362E+01  2.4807890E+02
 1.8691006E+01  2.4687967E+02
 1.8714651E+01  2.4601318E+02
 1.8738295E+01  2.4509006E+02
 1.8761940E+01  2.4384253E+02
 1.8785583E+01  2.4253113E+02
 1.8809229E+01  2.4045551E+02
 1.8832874E+01  2.3621242E+02
 1.8856518E+01  2.2960382E+02
 1.8880163E+01  2.2125723E+02
 1.8903807E+01  2.1121771E+02
 1.8927452E+01  1.9992990E+02
 1.8951096E+01  1.8980679E+02
 1.8974741E+01  1.7806003E+02
 1.8998384E+01  1.6217154E+02
 1.9022030E+01  1.4427773E+02
 1.9045675E+01  1.2395124E+02
 1.9069319E+01  1.0678981E+02
 1.9092964E+01  9.2664238E+01
 1.9116608E+01  7.5150459E+01
 1.9140253E+01  5.4893139E+01
 1.9163897E+01  3.8727886E+01
 1.9187542E+01  3.0075352E+01
 1.9211185E+01  2.5977131E+01
 1.9234831E+01  2.3530220E+01
 1.9258474E+01  2.1339716E+01
 1.9282120E+01  2.0106922E+01
 1.9305765E+01  1.9543106E+01
 1.9329409E+01  1.9091990E+01
 1.9353054E+01  1.8211195E+01
 1.9376698E+01  1.7210226E+01
 1.9400343E+01  1.6767357E+01
 1.9423986E+01  1.4779660E+01
 1.9447632E+01  1.3984357E+01
 1.9471275E+01  1.3572265E+01
 1.9494921E+01  1.1867182E+01
 1.9518564E+01  1.0994684E+01
 1.9542210E+01  1.1574328E+01
 1.9565855E+01  1.1913682E+01
 1.9589499E+01  1.2416442E+01
 1.9613144E+01  1.3192529E+01
 1.9636787E+01  1.4137443E+01
 1.9660433E+01  1.4165996E+01
 1.9684076E+01  1.1835238E+01
 1.9707722E+01  1.0792540E+01
 1.9731365E+01  1.2408350E+01
 1.9755011E+01  1.3783400E+01
 1.9778654E+01  1.2914485E+01
 1.9802299E+01  1.3860171E+01
 1.9825945E+01  1.3360339E+01
 1.9849588E+01  1.3230369E+01
 1.9873234E+01  1.3968703E+01
 1.9896877E+01  1.4414988E+01
 1.9920523E+01  1.1849530E+01
 1.9944166E+01  1.3211984E+01
 1.9967812E+01  1.4149866E+01
 1.9991455E+01  1.3119182E+01
 2.0015100E+01  1.1512918E+01
 2.0038744E+01  1.0625054E+01
 2.0062389E+01  1.0629288E+01
 2.0086035E+01  1.1476428E+01
 2.0109678E+01  1.1819740E+01
 2.0133324E+01  0.0000000E+00
 2.0156967E+01  0.0000000E+00
 2.0180613E+01  0.0000000E+00
 2.0204256E+01  0.0000000E+00
 2.0227901E+01  0.0000000E+00
 2.0251545E+01  0.0000000E+00
 2.0275190E+01  0.0000000E+00
 2.0298834E+01  0.0000000E+00
 2.0322479E+01  0.0000000E+00
 2.0346125E+01  0.0000000E+00
 2.0369768E+01  0.0000000E+00
 2.0393414E+01  0.0000000E+00
 2.0417057E+01  1.3069462E+01
 2.0440702E+01  1.3176068E+01
 2.0464346E+01  1.4190965E+01
 2.0487991E+01  1.3383094E+01
 2.0511635E+01  1.3757741E+01
 2.0535280E+01  1.4286654E+01
 2.0558926E+01  1.4074847E+01
 2.0582569E+01  1.3106804E+01
 2.0606215E+01  1.4206901E+01
 2.0629858E+01  1.4310067E+01
 2.0653503E+01  1.3744843E+01
 2.0677147E+01  1.2954333E+01
 2.0700792E+01  1.2231609E+01
 2.0724436E+01  1.0774506E+01
 2.0748081E+01  1.3666212E+01
 2.0771725E+01  1.3507749E+01
 2.0795370E+01  1.3722696E+01
 2.0819016E+01  1.4327734E+01
 2.0842659E+01  1.4277661E+01
 2.0866304E+01  1.3807322E+01
 2.0889948E+01  1.3775975E+01
 2.0913593E+01  1.1502786E+01
 2.0937237E+01  1.1413796E+01
 2.0960882E+01  1.2371360E+01
 2.0984526E+01  1.3167533E+01
 2.1008171E+01  1.2836306E+01
 2.1031815E+01  1.2547409E+01
 2.1055460E+01  1.3088379E+01
 2.1079105E+01  1.3908015E+01
 2.1102749E+01  1.7103374E+01
 2.1126394E+01  1.7754122E+01
 2.1150038E+01  1.7813318E+01
 2.1173683E+01  1.8188616E+01
 2.1197327E+01  1.9227604E+01
 2.1220972E+01  2.0847582E+01
 2.1244616E+01  2.3838791E+01
 2.1268261E+01  2.9077618E+01
 2.1291904E+01  3.6591492E+01
 2.1315550E+01  4.7241512E+01
 2.1339195E+01  6.2235737E+01
 2.1362839E+01  8.0106850E+01
 2.1386484E+01  9.8806458E+01
 2.1410128E+01  1.1483449E+02
 2.1433773E+01  1.2744128E+02
 2.1457417E+01  1.3710905E+02
 2.1481062E+01  1.4379060E+02
 2.1504705E+01  1.4916466E+02
 2.1528351E+01  1.5387381E+02
 2.1551994E+01  1.5761995E+02
 2.1575640E+01  1.6044006E+02
 2.1599285E+01  1.6266733E+02
 2.1622929E+01  1.6366269E+02
 2.1646574E+01  1.6396289E+02
 2.1670218E+01  1.6444342E+02
 2.1693863E+01  1.6575200E+02
 2.1717506E+01  1.6804495E+02
 2.1741152E+01  1.7236235E+02
 2.1764795E+01  1.8160522E+02
 2.1788441E+01  1.9680165E+02
 2.1812084E+01  2.0810219E+02
 2.1835730E+01  2.0307753E+02
 2.1859375E+01  1.9051881E+02
 2.1883018E+01  1.8168166E+02
 2.1906664E+01  1.7783765E+02
 2.1930307E+01  1.7616451E+02
 2.1953953E+01  1.7462585E+02
 2.1977596E+01  1.7267212E+02
 2.2001242E+01  1.7098189E+02
 2.2024885E+01  1.6979060E+02
 2.2048531E+01  1.6912413E+02
 2.2072176E+01  1.6875539E+02
 2.2095819E+01  1.6875237E+02
 2.2119465E+01  1.6937370E+02
 2.2143108E+01  1.7083627E+02
 2.2166754E+01  1.7477612E+02
 2.2190397E+01  1.8250476E+02
 2.2214043E+01  1.9696809E+02
 2.2237686E+01  2.1605618E+02
 2.2261332E+01  2.3145323E+02
 2.2284975E+01  2.3320192E+02
 2.2308620E+01  2.1569502E+02
 2.2332266E+01  1.9313969E+02
 2.2355909E+01  1.7907225E+02
 2.2379555E+01  1.7170966E+02
 2.2403198E+01  1.6869249E+02
 2.2426844E+01  1.6720563E+02
 2.2450487E+01  1.6642535E+02
 2.2474133E+01  1.6603459E+02
 2.2497776E+01  1.6560924E+02
 2.2521421E+01  1.6529700E+02
 2.2545065E+01  1.6510411E+02
 2.2568710E+01  1.6506419E+02
 2.2592356E+01  1.6521477E+02
 2.2615999E+01  1.6533040E+02
 2.2639645E+01  1.6515202E+02
 2.2663288E+01  1.6469962E+02
 2.2686934E+01  1.6435846E+02
 2.2710577E+01  1.6412585E+02
 2.2734222E+01  1.6383820E+02
 2.2757866E+01  1.6376402E+02
 2.2781511E+01  1.6393370E+02
 2.2805155E+01  1.6404080E+02
 2.2828800E+01  1.6382635E+02
 2.2852446E+01  1.6378239E+02
 2.2876089E+01  1.6403516E+02
 2.2899734E+01  1.6449004E+02
 2.2923378E+01  1.6508559E+02
 2.2947023E+01  1.6513995E+02
 2.2970667E+01  1.6442737E+02
 2.2994312E+01  1.6374657E+02
 2.3017956E+01  1.6312115E+02
 2.3041601E+01  1.6275739E+02
 2.3065245E+01  1.6255486E+02
 2.3088890E+01  1.6246432E+02
 2.3112535E+01  1.6247484E+02
 2.3136179E+01  1.6246841E+02
 2.3159824E+01  1.6252380E+02
 2.3183468E+01  1.6255617E+02
 2.3207113E+01  1.6250589E+02
 2.3230757E+01  1.6241000E+02
 2.3254402E+01  1.6240659E+02
 2.3278046E+01  1.6252980E+02
 2.3301691E+01  1.6271187E+02
 2.3325335E+01  1.6275742E+02
 2.3348980E+01  1.6297951E+02
 2.3372625E+01  1.6337868E+02
 2.3396269E+01  1.6390938E+02
 2.3419914E+01  1.6469189E+02
 2.3443558E+01  1.6607961E+02
 2.3467203E+01  1.6743324E+02
 2.3490847E+01  1.6701013E+02
 2.3514492E+01  1.6524211E+02
 2.3538136E+01  1.6406458E+02
 2.3561781E+01  1.6377866E+02
 2.3585426E+01  1.6398911E+02
 2.3609070E+01  1.6414426E+02
 2.3632715E+01  1.6406636E+02
 2.3656359E+01  1.6406854E+02
 2.3680004E+01  1.6416608E+02
 2.3703648E+01  1.6421431E+02
 2.3727293E+01  1.6429665E+02
 2.3750937E+01  1.6433884E+02
 2.3774582E+01  1.6430684E+02
 2.3798225E+01  1.6424352E+02
 2.3821871E+01  1.6427832E+02
 2.3845516E+01  1.6417838E+02
 2.3869160E+01  1.6380779E+02
 2.3892805E+01  1.6252866E+02
 2.3916449E+01  1.5951443E+02
 2.3940094E+01  1.5414052E+02
 2.3963737E+01  1.4733932E+02
 2.3987383E+01  1.3983690E+02
 2.4011026E+01  1.3246490E+02
 2.4034672E+01  1.2474388E+02
 2.4058315E+01  1.1893542E+02
 2.4081961E+01  1.1204504E+02
 2.4105606E+01  1.0037629E+02
 2.4129250E+01  8.5636856E+01
 2.4152895E+01  6.5862198E+01
 2.4176538E+01  4.5258003E+01
 2.4200184E+01  3.3101444E+01
 2.4223827E+01  2.6794132E+01
 2.4247473E+01  2.3132505E+01
 2.4271116E+01  2.0768785E+01
 2.4294762E+01  1.9621786E+01
 2.4318405E+01  1.9087187E+01
 2.4342051E+01  1.8859383E+01
 2.4365696E+01  1.8958755E+01
 2.4389339E+01  1.8723484E+01
 2.4412985E+01  1.7697683E+01
 2.4436628E+01  1.7041327E+01
 2.4460274E+01  1.7374804E+01
 2.4483917E+01  1.2838017E+01
 2.4507563E+01  1.6371325E+01
 2.4531206E+01  1.6432896E+01
 2.4554852E+01  1.5867530E+01
 2.4578495E+01  1.4887839E+01
 2.4602140E+01  1.6170509E+01
 2.4625786E+01  1.6477207E+01
 2.4649429E+01  1.5375300E+01
 2.4673075E+01  1.4481179E+01
 2.4696718E+01  1.4930265E+01
 2.4720364E+01  1.4627269E+01
 2.4744007E+01  1.4985429E+01
 2.4767653E+01  1.5647468E+01
 2.4791296E+01  1.5982798E+01
 2.4814941E+01  1.4772551E+01
 2.4838585E+01  1.3685992E+01
 2.4862230E+01  1.2829576E+01
 2.4885876E+01  0.0000000E+00
 2.4909519E+01  0.0000000E+00
 2.4933165E+01  0.0000000E+00
 2.4956808E+01  0.0000000E+00
 2.4980453E+01  0.0000000E+00
 2.5004097E+01  0.0000000E+00
 2.5027742E+01  0.0000000E+00
 2.5051386E+01  0.0000000E+00
 2.5075031E+01  0.0000000E+00
 2.5098677E+01  0.0000000E+00
 2.5122320E+01  0.0000000E+00
 2.5145966E+01  0.0000000E+00
 2.5169609E+01  0.0000000E+00
 2.5193254E+01  0.0000000E+00
 2.5216898E+01  0.0000000E+00
 2.5240543E+01  0.0000000E+00
 2.5264187E+01  0.0000000E+00
 2.5287832E+01  0.0000000E+00
 2.5311476E+01  0.0000000E+00
 2.5335121E+01  0.0000000E+00
 2.5358767E+01  0.0000000E+00
 2.5382410E+01  0.0000000E+00
 2.5406055E+01  0.0000000E+00
 2.5429699E+01  0.0000000E+00
 2.5453344E+01  0.0000000E+00
 2.5476988E+01  0.0000000E+00
 2.5500633E+01  0.0000000E+00
 2.5524277E+01  0.0000000E+00
 2.5547922E+01  0.0000000E+00
 2.5571566E+01  0.0000000E+00
 2.5595211E+01  0.0000000E+00
 2.5618856E+01  0.0000000E+00
 2.5642500E+01  0.0000000E+00
 2.5666145E+01  0.0000000E+00
 2.5689789E+01  0.0000000E+00
 2.5713434E+01  0.0000000E+00
 2.5737078E+01  0.0000000E+00
 2.5760723E+01  0.0000000E+00
 2.5784367E+01  0.0000000E+00
 2.5808012E+01  0.0000000E+00
 2.5831656E+01  0.0000000E+00
 2.5855301E+01  0.0000000E+00
 2.5878946E+01  0.0000000E+00
 2.5902590E+01  0.0000000E+00
 2.5926235E+01  0.0000000E+00
 2.5949879E+01  0.0000000E+00
 2.5973524E+01  0.0000000E+00
 2.5997168E+01  0.0000000E+00
 2.6020813E+01  0.0000000E+00
 2.6044456E+01  0.0000000E+00
 2.6068102E+01  0.0000000E+00
 2.6091745E+01  0.0000000E+00
 2.6115391E+01  0.0000000E+00
 2.6139036E+01  0.0000000E+00
 2.6162680E+01  0.0000000E+00
 2.6186325E+01  0.0000000E+00
 2.6209969E+01  0.0000000E+00
 2.6233614E+01  0.0000000E+00
 2.6257257E+01  0.0000000E+00
 2.6280903E+01  0.0000000E+00
 2.6304546E+01  0.0000000E+00
 2.6328192E+01  0.0000000E+00
 2.6351835E+01  1.9984867E+01
 2.6375481E+01  1.7037836E+01
 2.6399126E+01  1.7130011E+01
 2.6422770E+01  1.7836170E+01
 2.6446415E+01  1.8254570E+01
 2.6470058E+01  1.8145212E+01
 2.6493704E+01  1.8448418E+01
 2.6517347E+01  1.8918751E+01
 2.6540993E+01  1.9696762E+01
 2.6564636E+01  2.1612720E+01
 2.6588282E+01  2.5443651E+01
 2.6611927E+01  3.2279320E+01
 2.6635571E+01  4.5293262E+01
 2.6659216E+01  6.3002510E+01
 2.6682859E+01  8.4806183E+01
 2.6706505E+01  1.1021660E+02
 2.6730148E+01  1.3579327E+02
 2.6753794E+01  1.5832666E+02
 2.6777437E+01  1.7657014E+02
 2.6801083E+01  1.9108073E+02
 2.6824726E+01  2.0002846E+02
 2.6848372E+01  2.0523528E+02
 2.6872017E+01  2.0829358E+02
 2.6895660E+01  2.1037395E+02
 2.6919306E+01  2.1183517E+02
 2.6942949E+01  2.1337558E+02
 2.6966595E+01  2.1484872E+02
 2.6990238E+01  2.1602675E+02
 2.7013884E+01  2.1748120E+02
 2.7037527E+01  2.1944199E+02
 2.7061172E+01  2.2170654E+02
 2.7084816E+01  2.2452312E+02
 2.7108461E+01  2.2811711E+02
 2.7132107E+01  2.3219893E+02
 2.7155750E+01  2.3755301E+02
 2.7179396E+01  2.4577591E+02
 2.7203039E+01  2.6035220E+02
 2.7226685E+01  2.9072803E+02
 2.7250328E+01  3.6149503E+02
 2.7273973E+01  5.0053656E+02
 2.7297617E+01  6.7192334E+02
 2.7321262E+01  7.5563605E+02
 2.7344906E+01  6.8752576E+02
 2.7368551E+01  5.4116815E+02
 2.7392197E+01  4.1656970E+02
 2.7415840E+01  3.3961514E+02
 2.7439486E+01  2.9680582E+02
 2.7463129E+01  2.7270584E+02
 2.7486774E+01  2.5804077E+02
 2.7510418E+01  2.4843823E+02
 2.7534063E+01  2.4197179E+02
 2.7557707E+01  2.3727869E+02
 2.7581352E+01  2.3387057E+02
 2.7604996E+01  2.3138499E+02
 2.7628641E+01  2.2974881E+02
 2.7652287E+01  2.2845778E+02
 2.7675930E+01  2.2721693E+02
 2.7699575E+01  2.2633974E+02
 2.7723219E+01  2.2576540E+02
 2.7746864E+01  2.2519444E+02
 2.7770508E+01  2.2476854E+02
 2.7794153E+01  2.2431564E+02
 2.7817797E+01  2.2384753E+02
 2.7841442E+01  2.2367751E+02
 2.7865086E+01  2.2340961E+02
 2.7888731E+01  2.2318610E+02
 2.7912376E+01  2.2309747E+02
 2.7936020E+01  2.2315387E+02
 2.7959665E+01  2.2306577E+02
 2.7983309E+01  2.2297691E+02
 2.8006954E+01  2.2304407E+02
 2.8030598E+01  2.2335059E+02
 2.8054243E+01  2.2360435E+02
 2.8077887E+01  2.2344545E+02
 2.8101532E+01  2.2303123E+02
 2.8125177E+01  2.2277757E+02
 2.8148821E+01  2.2255768E+02
 2.8172466E+01  2.2236702E+02
 2.8196110E+01  2.2232660E+02
 2.8219755E+01  2.2248759E+02
 2.8243399E+01  2.2261414E+02
 2.8267044E+01  2.2301578E+02
 2.8290688E+01  2.2311838E+02
 2.8314333E+01  2.2253792E+02
 2.8337976E+01  2.2172409E+02
 2.8361622E+01  2.2142914E+02
 2.8385267E+01  2.2123061E+02
 2.8408911E+01  2.2120557E+02
 2.8432556E+01  2.2127202E+02
 2.8456200E+01  2.2157491E+02
 2.8479845E+01  2.2179861E+02
 2.8503489E+01  2.2171402E+02
 2.8527134E+01  2.2124828E+02
 2.8550777E+01  2.2059836E+02
 2.8574423E+01  2.2030032E+02
 2.8598066E+01  2.2008400E+02
 2.8621712E+01  2.1988531E+02
 2.8645357E+01  2.1970819E+02
 2.8669001E+01  2.1949591E+02
 2.8692646E+01  2.1918637E+02
 2.8716290E+01  2.1907001E+02
 2.8739935E+01  2.1905383E+02
 2.8763578E+01  2.1891518E+02
 2.8787224E+01  2.1887688E+02
 2.8810867E+01  2.1881299E+02
 2.8834513E+01  2.1909341E+02
 2.8858156E+01  2.1972667E+02
 2.8881802E+01  2.2078790E+02
 2.8905447E+01  2.2273508E+02
 2.8929090E+01  2.2507097E+02
 2.8952736E+01  2.2670813E+02
 2.8976379E+01  2.2645534E+02
 2.9000025E+01  2.2491856E+02
 2.9023668E+01  2.2307208E+02
 2.9047314E+01  2.2144441E+02
 2.9070957E+01  2.2023834E+02
 2.9094603E+01  2.1985736E+02
 2.9118246E+01  2.1976222E+02
 2.9141891E+01  2.1933615E+02
 2.9165537E+01  2.1848904E+02
 2.9189180E+01  2.1738547E+02
 2.9212826E+01  2.1636844E+02
 2.9236469E+01  2.1550237E+02
 2.9260115E+01  2.1494963E+02
 2.9283758E+01  2.1462749E+02
 2.9307404E+01  2.1429027E+02
 2.9331047E+01  2.1398268E+02
 2.9354692E+01  2.1364857E+02
 2.9378336E+01  2.1318024E+02
 2.9401981E+01  2.1280113E+02
 2.9425627E+01  2.1264708E+02
 2.9449270E+01  2.1233832E+02
 2.9472916E+01  2.1207657E+02
 2.9496559E+01  2.1199278E+02
 2.9520205E+01  2.1187383E+02
 2.9543848E+01  2.1165050E+02
 2.9567493E+01  2.1142238E+02
 2.9591137E+01  2.1143080E+02
 2.9614782E+01  2.1173955E+02
 2.9638428E+01  2.1190869E+02
 2.9662071E+01  2.1168684E+02
 2.9685717E+01  2.1131674E+02
 2.9709360E+01  2.1092453E+02
 2.9733006E+01  2.1023096E+02
 2.9756649E+01  2.0977278E+02
 2.9780294E+01  2.0954477E+02
 2.9803938E+01  2.0931197E+02
 2.9827583E+01  2.0920605E+02
 2.9851227E+01  2.0963664E+02
 2.9874872E+01  2.1084644E+02
 2.9898518E+01  2.1411627E+02
 2.9922161E+01  2.2009366E+02
 2.9945807E+01  2.2560866E+02
 2.9969450E+01  2.2460468E+02
 2.9993095E+01  2.1749147E+02
 3.0016739E+01  2.1093575E+02
 3.0040384E+01  2.0773724E+02
 3.0064028E+01  2.0650250E+02
 3.0087673E+01  2.0588062E+02
 3.0111317E+01  2.0534323E+02
 3.0134962E+01  2.0487228E+02
 3.0158607E+01  2.0479434E+02
 3.0182251E+01  2.0459615E+02
 3.0205896E+01  2.0422824E+02
 3.0229540E+01  2.0365230E+02
 3.0253185E+01  2.0324278E+02
 3.0276829E+01  2.0299846E+02
 3.0300474E+01  2.0259267E+02
 3.0324118E+01  2.0235254E+02
 3.0347763E+01  2.0233931E+02
 3.0371407E+01  2.0228175E+02
 3.0395052E+01  2.0230951E+02
 3.0418697E+01  2.0257582E+02
 3.0442341E+01  2.0262093E+02
 3.0465986E+01  2.0232904E+02
 3.0489630E+01  2.0175517E+02
 3.0513275E+01  2.0095531E+02
 3.0536919E+01  2.0015475E+02
 3.0560564E+01  1.9945746E+02
 3.0584208E+01  1.9898398E+02
 3.0607853E+01  1.9861427E+02
 3.0631496E+01  1.9831345E+02
 3.0655142E+01  1.9823241E+02
 3.0678787E+01  1.9811830E+02
 3.0702431E+01  1.9772929E+02
 3.0726076E+01  1.9720511E+02
 3.0749720E+01  1.9658711E+02
 3.0773365E+01  1.9599466E+02
 3.0797009E+01  1.9549872E+02
 3.0820654E+01  1.9507744E+02
 3.0844297E+01  1.9473811E+02
 3.0867943E+01  1.9441240E+02
 3.0891586E+01  1.9415149E+02
 3.0915232E+01  1.9401242E+02
 3.0938877E+01  1.9369983E+02
 3.0962521E+01  1.9330052E+02
 3.0986166E+01  1.9318903E+02
 3.1009809E+01  1.9312646E+02
 3.1033455E+01  1.9314360E+02
 3.1057098E+01  1.9309673E+02
 3.1080744E+01  1.9291446E+02
 3.1104387E+01  1.9225848E+02
 3.1128033E+01  1.9171628E+02
 3.1151678E+01  1.9124910E+02
 3.1175322E+01  1.9076756E+02
 3.1198967E+01  1.9048758E+02
 3.1222610E+01  1.9033981E+02
 3.1246256E+01  1.9007994E+02
 3.1269899E+01  1.8968355E+02
 3.1293545E+01  1.8927695E+02
 3.1317188E+01  1.8913684E+02
 3.1340834E+01  1.8891672E+02
 3.1364477E+01  1.8860683E+02
 3.1388123E+01  1.8826881E+02
 3.1411768E+01  1.8774347E+02
 3.1435411E+01  1.8721158E+02
 3.1459057E+01  1.8687016E+02
 3.1482700E+01  1.8662996E+02
 3.1506346E+01  1.8646001E+02
 3.1529989E+01  1.8632661E+02
 3.1553635E+01  1.8603471E+02
 3.1577278E+01  1.8573863E+02
 3.1600924E+01  1.8565639E+02
 3.1624567E+01  1.8550214E+02
 3.1648212E+01  1.8519292E+02
 3.1671858E+01  1.8480736E+02
 3.1695501E+01  1.8456902E+02
 3.1719147E+01  1.8430998E+02
 3.1742790E+01  1.8405309E+02
 3.1766436E+01  1.8377051E+02
 3.1790079E+01  1.8350020E+02
 3.1813725E+01  1.8318327E+02
 3.1837368E+01  1.8284546E+02
 3.1861013E+01  1.8255046E+02
 3.1884657E+01  1.8233162E+02
 3.1908302E+01  1.8218260E+02
 3.1931948E+01  1.8221077E+02
 3.1955591E+01  1.8233556E+02
 3.1979237E+01  1.8222913E+02
 3.2002880E+01  1.8193712E+02
 3.2026524E+01  1.8165993E+02
 3.2050171E+01  1.8120018E+02
 3.2073814E+01  1.8063147E+02
 3.2097458E+01  1.8024023E+02
 3.2121101E+01  1.7985872E+02
 3.2144749E+01  1.7954488E+02
 3.2168392E+01  1.7919553E+02
 3.2192036E+01  1.7893362E+02
 3.2215683E+01  1.7872870E+02
 3.2239326E+01  1.7833380E+02
 3.2262970E+01  1.7781444E+02
 3.2286613E+01  1.7737486E+02
 3.2310261E+01  1.7722807E+02
 3.2333904E+01  1.7706494E+02
 3.2357548E+01  1.7687489E+02
 3.2381191E+01  1.7691383E+02
 3.2404839E+01  1.7718890E+02
 3.2428482E+01  1.7764716E+02
 3.2452126E+01  1.7724657E+02
 3.2475773E+01  1.7654245E+02
 3.2499416E+01  1.7618187E+02
 3.2523060E+01  1.7601927E+02
 3.2546703E+01  1.7601532E+02
 3.2570351E+01  1.7599864E+02
 3.2593994E+01  1.7610757E+02
 3.2617638E+01  1.7638402E+02
 3.2641281E+01  1.7689099E+02
 3.2664928E+01  1.7768228E+02
 3.2688572E+01  1.7906877E+02
 3.2712215E+01  1.8148624E+02
 3.2735863E+01  1.8694156E+02
 3.2759506E+01  1.9829846E+02
 3.2783150E+01  2.1563062E+02
 3.2806793E+01  2.3103378E+02
 3.2830441E+01  2.3785909E+02
 3.2854084E+01  2.3498314E+02
 3.2877728E+01  2.2073059E+02
 3.2901371E+01  2.0205183E+02
 3.2925018E+01  1.8910083E+02
 3.2948662E+01  1.8231482E+02
 3.2972305E+01  1.7856949E+02
 3.2995953E+01  1.7658411E+02
 3.3019596E+01  1.7528171E+02
 3.3043240E+01  1.7430632E+02
 3.3066883E+01  1.7417616E+02
 3.3090530E+01  1.7395155E+02
 3.3114174E+01  1.7304024E+02
 3.3137817E+01  1.7247160E+02
 3.3161461E+01  1.7263707E+02
 3.3185108E+01  1.7386232E+02
 3.3208752E+01  1.7686632E+02
 3.3232395E+01  1.8297134E+02
 3.3256042E+01  1.9297684E+02
 3.3279686E+01  2.0226549E+02
 3.3303329E+01  1.9678534E+02
 3.3326973E+01  1.8198045E+02
 3.3350620E+01  1.7392113E+02
 3.3374264E+01  1.7156094E+02
 3.3397907E+01  1.7067171E+02
 3.3421555E+01  1.7023878E+02
 3.3445198E+01  1.6983691E+02
 3.3468842E+01  1.6955592E+02
 3.3492485E+01  1.6958701E+02
 3.3516132E+01  1.6936438E+02
 3.3539776E+01  1.6915289E+02
 3.3563419E+01  1.6908865E+02
 3.3587063E+01  1.6888818E+02
 3.3610710E+01  1.6867278E+02
 3.3634354E+01  1.6849040E+02
 3.3657997E+01  1.6845399E+02
 3.3681644E+01  1.6852567E+02
 3.3705288E+01  1.6884010E+02
 3.3728931E+01  1.6891644E+02
 3.3752575E+01  1.6891939E+02
 3.3776222E+01  1.6894502E+02
 3.3799866E+01  1.6892865E+02
 3.3823509E+01  1.6885268E+02
 3.3847153E+01  1.6891008E+02
 3.3870800E+01  1.6911996E+02
 3.3894444E+01  1.6909464E+02
 3.3918087E+01  1.6904512E+02
 3.3941734E+01  1.6919533E+02
 3.3965378E+01  1.6955095E+02
 3.3989021E+01  1.6992078E+02
 3.4012665E+01  1.7022610E+02
 3.4036312E+01  1.7041820E+02
 3.4059956E+01  1.7034987E+02
 3.4083599E+01  1.7018501E+02
 3.4107243E+01  1.7002370E+02
 3.4130890E+01  1.7002202E+02
 3.4154533E+01  1.7033028E+02
 3.4178177E+01  1.7067421E+02
 3.4201824E+01  1.7097815E+02
 3.4225468E+01  1.7117320E+02
 3.4249111E+01  1.7112515E+02
 3.4272755E+01  1.7107813E+02
 3.4296402E+01  1.7112099E+02
 3.4320045E+01  1.7100487E+02
 3.4343689E+01  1.7070045E+02
 3.4367332E+01  1.7040450E+02
 3.4390980E+01  1.7017946E+02
 3.4414623E+01  1.6996751E+02
 3.4438267E+01  1.7000905E+02
 3.4461914E+01  1.7021132E+02
 3.4485558E+01  1.7034749E+02
 3.4509201E+01  1.7047552E+02
 3.4532845E+01  1.7038287E+02
 3.4556492E+01  1.7058772E+02
 3.4580135E+01  1.7062657E+02
 3.4603779E+01  1.7074387E+02
 3.4627422E+01  1.7100468E+02
 3.4651070E+01  1.7137720E+02
 3.4674713E+01  1.7185953E+02
 3.4698357E+01  1.7218774E+02
 3.4722004E+01  1.7219592E+02
 3.4745647E+01  1.7218858E+02
 3.4769291E+01  1.7227318E+02
 3.4792934E+01  1.7249583E+02
 3.4816582E+01  1.7271616E+02
 3.4840225E+01  1.7291904E+02
 3.4863869E+01  1.7332745E+02
 3.4887512E+01  1.7345549E+02
 3.4911160E+01  1.7341931E+02
 3.4934803E+01  1.7324480E+02
 3.4958447E+01  1.7326741E+02
 3.4982094E+01  1.7347719E+02
 3.5005737E+01  1.7378114E+02
 3.5029381E+01  1.7416612E+02
 3.5053024E+01  1.7448737E+02
 3.5076672E+01  1.7454021E+02
 3.5100315E+01  1.7475845E+02
 3.5123959E+01  1.7490063E+02
 3.5147602E+01  1.7521275E+02
 3.5171249E+01  1.7586563E+02
 3.5194893E+01  1.7634064E+02
 3.5218536E+01  1.7669815E+02
 3.5242184E+01  1.7710002E+02
 3.5265827E+01  1.7779521E+02
 3.5289471E+01  1.7861620E+02
 3.5313114E+01  1.7958186E+02
 3.5336761E+01  1.8089226E+02
 3.5360405E+01  1.8267659E+02
 3.5384048E+01  1.8539049E+02
 3.5407692E+01  1.9044431E+02
 3.5431339E+01  2.0118884E+02
 3.5454983E+01  2.2135956E+02
 3.5478626E+01  2.4635541E+02
 3.5502274E+01  2.6607437E+02
 3.5525917E+01  2.7810022E+02
 3.5549561E+01  2.7524475E+02
 3.5573204E+01  2.5718994E+02
 3.5596851E+01  2.3388184E+02
 3.5620495E+01  2.1295418E+02
 3.5644138E+01  1.9857057E+02
 3.5667782E+01  1.9095035E+02
 3.5691429E+01  1.8711565E+02
 3.5715073E+01  1.8505376E+02
 3.5738716E+01  1.8392059E+02
 3.5762363E+01  1.8324083E+02
 3.5786007E+01  1.8271515E+02
 3.5809650E+01  1.8236389E+02
 3.5833294E+01  1.8214850E+02
 3.5856941E+01  1.8204614E+02
 3.5880585E+01  1.8187236E+02
 3.5904228E+01  1.8192276E+02
 3.5927872E+01  1.8231439E+02
 3.5951519E+01  1.8256902E+02
 3.5975163E+01  1.8279385E+02
 3.5998806E+01  1.8318062E+02
 3.6022453E+01  1.8356384E+02
 3.6046097E+01  1.8380276E+02
 3.6069740E+01  1.8395461E+02
 3.6093384E+01  1.8392261E+02
 3.6117031E+01  1.8454156E+02
 3.6140675E+01  1.8646010E+02
 3.6164318E+01  1.9083835E+02
 3.6187962E+01  1.9700441E+02
 3.6211609E+01  1.9682928E+02
 3.6235252E+01  1.9066661E+02
 3.6258896E+01  1.8709113E+02
 3.6282543E+01  1.8573717E+02
 3.6306187E+01  1.8538518E+02
 3.6329830E+01  1.8528270E+02
 3.6353474E+01  1.8510081E+02
 3.6377121E+01  1.8486212E+02
 3.6400764E+01  1.8480724E+02
 3.6424408E+01  1.8487755E+02
 3.6448055E+01  1.8486464E+02
 3.6471699E+01  1.8494797E+02
 3.6495342E+01  1.8506058E+02
 3.6518986E+01  1.8535071E+02
 3.6542633E+01  1.8575462E+02
 3.6566277E+01  1.8588943E+02
 3.6589920E+01  1.8594167E+02
 3.6613564E+01  1.8626031E+02
 3.6637211E+01  1.8647298E+02
 3.6660854E+01  1.8659770E+02
 3.6684498E+01  1.8665335E+02
 3.6708145E+01  1.8679533E+02
 3.6731789E+01  1.8688985E+02
 3.6755432E+01  1.8694055E+02
 3.6779076E+01  1.8701779E+02
 3.6802723E+01  1.8725960E+02
 3.6826366E+01  1.8749699E+02
 3.6850010E+01  1.8776361E+02
 3.6873653E+01  1.8800017E+02
 3.6897301E+01  1.8800507E+02
 3.6920944E+01  1.8802660E+02
 3.6944588E+01  1.8795279E+02
 3.6968235E+01  1.8811717E+02
 3.6991879E+01  1.8820708E+02
 3.7015522E+01  1.8836320E+02
 3.7039165E+01  1.8852222E+02
 3.7062813E+01  1.8877577E+02
 3.7086456E+01  1.8879626E+02
 3.7110100E+01  1.8879865E+02
 3.7133743E+01  1.8906902E+02
 3.7157391E+01  1.8944849E+02
 3.7181034E+01  1.8964061E+02
 3.7204678E+01  1.8954646E+02
 3.7228325E+01  1.8939952E+02
 3.7251968E+01  1.8927138E+02
 3.7275612E+01  1.8933066E+02
 3.7299255E+01  1.8935454E+02
 3.7322903E+01  1.8934477E+02
 3.7346546E+01  1.8946948E+02
 3.7370190E+01  1.8941792E+02
 3.7393833E+01  1.8958745E+02
 3.7417480E+01  1.8949745E+02
 3.7441124E+01  1.8964413E+02
 3.7464767E+01  1.8984050E+02
 3.7488415E+01  1.8972266E+02
 3.7512058E+01  1.8954486E+02
 3.7535702E+01  1.8945270E+02
 3.7559345E+01  1.8961098E+02
 3.7582993E+01  1.8952963E+02
 3.7606636E+01  1.8947485E+02
 3.7630280E+01  1.8959203E+02
 3.7653923E+01  1.8976822E+02
 3.7677570E+01  1.8979234E+02
 3.7701214E+01  1.9009265E+02
 3.7724857E+01  1.9081721E+02
 3.7748505E+01  1.9300737E+02
 3.7772148E+01  1.9909421E+02
 3.7795792E+01  2.0678430E+02
 3.7819435E+01  2.0527379E+02
 3.7843082E+01  1.9697044E+02
 3.7866726E+01  1.9288542E+02
 3.7890369E+01  1.9139722E+02
 3.7914013E+01  1.9063669E+02
 3.7937660E+01  1.9025410E+02
 3.7961304E+01  1.9003188E+02
 3.7984947E+01  1.8984152E+02
 3.8008595E+01  1.8973300E+02
 3.8032238E+01  1.8978937E+02
 3.8055882E+01  1.9016145E+02
 3.8079525E+01  1.9047923E+02
 3.8103172E+01  1.9075476E+02
 3.8126816E+01  1.9120708E+02
 3.8150459E+01  1.9159349E+02
 3.8174103E+01  1.9195024E+02
 3.8197750E+01  1.9246896E+02
 3.8221394E+01  1.9333130E+02
 3.8245037E+01  1.9488509E+02
 3.8268684E+01  1.9821535E+02
 3.8292328E+01  2.0604358E+02
 3.8315971E+01  2.2210776E+02
 3.8339615E+01  2.4239874E+02
 3.8363262E+01  2.5320456E+02
 3.8386906E+01  2.5384543E+02
 3.8410549E+01  2.5602481E+02
 3.8434193E+01  2.5557805E+02
 3.8457840E+01  2.4063452E+02
 3.8481483E+01  2.1924916E+02
 3.8505127E+01  2.0489931E+02
 3.8528774E+01  1.9748560E+02
 3.8552418E+01  1.9371710E+02
 3.8576061E+01  1.9149565E+02
 3.8599705E+01  1.9009753E+02
 3.8623352E+01  1.8898378E+02
 3.8646996E+01  1.8808104E+02
 3.8670639E+01  1.8725375E+02
 3.8694283E+01  1.8670734E+02
 3.8717930E+01  1.8627487E+02
 3.8741573E+01  1.8589693E+02
 3.8765217E+01  1.8565288E+02
 3.8788864E+01  1.8552147E+02
 3.8812508E+01  1.8521960E+02
 3.8836151E+01  1.8493314E+02
 3.8859795E+01  1.8462596E+02
 3.8883442E+01  1.8420729E+02
 3.8907085E+01  1.8378796E+02
 3.8930729E+01  1.8357407E+02
 3.8954372E+01  1.8340091E+02
 3.8978020E+01  1.8314561E+02
 3.9001663E+01  1.8289455E+02
 3.9025307E+01  1.8256187E+02
 3.9048954E+01  1.8211325E+02
 3.9072598E+01  1.8194292E+02
 3.9096241E+01  1.8171542E+02
 3.9119884E+01  1.8137279E+02
 3.9143532E+01  1.8105251E+02
 3.9167175E+01  1.8090233E+02
 3.9190819E+01  1.8076253E+02
 3.9214462E+01  1.8081139E+02
 3.9238110E+01  1.8054778E+02
 3.9261753E+01  1.8009865E+02
 3.9285397E+01  1.7987474E+02
 3.9309044E+01  1.7987166E+02
 3.9332687E+01  1.7983009E+02
 3.9356331E+01  1.7965369E+02
 3.9379974E+01  1.7943613E+02
 3.9403622E+01  1.7932506E+02
 3.9427265E+01  1.7919255E+02
 3.9450909E+01  1.7890793E+02
 3.9474556E+01  1.7885399E+02
 3.9498199E+01  1.7849307E+02
 3.9521843E+01  1.7821942E+02
 3.9545486E+01  1.7765981E+02
 3.9569134E+01  1.7727835E+02
 3.9592777E+01  1.7721075E+02
 3.9616421E+01  1.7714725E+02
 3.9640064E+01  1.7720297E+02
 3.9663712E+01  1.7735410E+02
 3.9687355E+01  1.7732605E+02
 3.9710999E+01  1.7681647E+02
 3.9734646E+01  1.7607309E+02
 3.9758289E+01  1.7579385E+02
 3.9781933E+01  1.7571954E+02
 3.9805576E+01  1.7532932E+02
 3.9829224E+01  1.7509071E+02
 3.9852867E+01  1.7456540E+02
 3.9876511E+01  1.7441150E+02
 3.9900154E+01  1.7443690E+02
 3.9923801E+01  1.7399533E+02
 3.9947445E+01  1.7385657E+02
 3.9971088E+01  1.7366110E+02
 3.9994736E+01  1.7313069E+02
 4.0018379E+01  1.7286931E+02
 4.0042023E+01  1.7252567E+02
 4.0065666E+01  1.7214189E+02
 4.0089314E+01  1.7193097E+02
 4.0112957E+01  1.7181978E+02
 4.0136600E+01  1.7185712E+02
 4.0160244E+01  1.7192107E+02
 4.0183891E+01  1.7209096E+02
 4.0207535E+01  1.7309280E+02
 4.0231178E+01  1.7746321E+02
 4.0254826E+01  1.8386504E+02
 4.0278469E+01  1.8234328E+02
 4.0302113E+01  1.7929358E+02
 4.0325756E+01  1.7921352E+02
 4.0349403E+01  1.7875670E+02
 4.0373047E+01  1.7645164E+02
 4.0396690E+01  1.7346657E+02
 4.0420334E+01  1.7162509E+02
 4.0443981E+01  1.7032552E+02
 4.0467625E+01  1.6931668E+02
 4.0491268E+01  1.6885466E+02
 4.0514915E+01  1.6856668E+02
 4.0538559E+01  1.6838173E+02
 4.0562202E+01  1.6798581E+02
 4.0585846E+01  1.6748486E+02
 4.0609493E+01  1.6745186E+02
 4.0633137E+01  1.6754953E+02
 4.0656780E+01  1.6740962E+02
 4.0680424E+01  1.6728030E+02
 4.0704071E+01  1.6740669E+02
 4.0727715E+01  1.6744600E+02
 4.0751358E+01  1.6739659E+02
 4.0775005E+01  1.6718343E+02
 4.0798649E+01  1.6700127E+02
 4.0822292E+01  1.6657222E+02
 4.0845936E+01  1.6637852E+02
 4.0869583E+01  1.6620476E+02
 4.0893227E+01  1.6538582E+02
 4.0916870E+01  1.6528017E+02
 4.0940514E+01  1.6571991E+02
 4.0964161E+01  1.6603014E+02
 4.0987804E+01  1.6637222E+02
 4.1011448E+01  1.6652864E+02
 4.1035095E+01  1.6715588E+02
 4.1058739E+01  1.6798457E+02
 4.1082382E+01  1.6934410E+02
 4.1106026E+01  1.7144270E+02
 4.1129673E+01  1.7451984E+02
 4.1153316E+01  1.7974861E+02
 4.1176960E+01  1.8842120E+02
 4.1200603E+01  1.9792833E+02
 4.1224251E+01  2.0513113E+02
 4.1247894E+01  2.1354192E+02
 4.1271538E+01  2.2788651E+02
 4.1295185E+01  2.4461848E+02
 4.1318829E+01  2.5538367E+02
 4.1342472E+01  2.5954874E+02
 4.1366116E+01  2.6122296E+02
 4.1389763E+01  2.6108438E+02
 4.1413406E+01  2.5813776E+02
 4.1437050E+01  2.5304112E+02
 4.1460693E+01  2.4497296E+02
 4.1484341E+01  2.3466499E+02
 4.1507984E+01  2.2081654E+02
 4.1531628E+01  2.0737260E+02
 4.1555275E+01  1.9611278E+02
 4.1578918E+01  1.8740269E+02
 4.1602562E+01  1.8063499E+02
 4.1626205E+01  1.7543567E+02
 4.1649853E+01  1.7180826E+02
 4.1673496E+01  1.6907631E+02
 4.1697140E+01  1.6712202E+02
 4.1720783E+01  1.6571167E+02
 4.1744431E+01  1.6469553E+02
 4.1768074E+01  1.6389728E+02
 4.1791718E+01  1.6334520E+02
 4.1815365E+01  1.6286678E+02
 4.1839008E+01  1.6093063E+02
 4.1862652E+01  1.6062305E+02
 4.1886295E+01  1.6061159E+02
 4.1909943E+01  1.6068901E+02
 4.1933586E+01  1.6094005E+02
 4.1957230E+01  1.6144318E+02
 4.1980873E+01  1.6202000E+02
 4.2004520E+01  1.6321095E+02
 4.2028164E+01  1.6503891E+02
 4.2051807E+01  1.6803983E+02
 4.2075455E+01  1.7459966E+02
 4.2099098E+01  1.8770369E+02
 4.2122742E+01  2.0735580E+02
 4.2146385E+01  2.2464566E+02
 4.2170033E+01  2.3234088E+02
 4.2193676E+01  2.3507155E+02
 4.2217319E+01  2.3911836E+02
 4.2240963E+01  2.3878535E+02
 4.2264610E+01  2.2658836E+02
 4.2288254E+01  2.0732750E+02
 4.2311897E+01  1.8987729E+02
 4.2335545E+01  1.7792191E+02
 4.2359188E+01  1.7068405E+02
 4.2382832E+01  1.6600134E+02
 4.2406475E+01  1.6259669E+02
 4.2430122E+01  1.6061835E+02
 4.2453766E+01  1.5909340E+02
 4.2477409E+01  1.5778471E+02
 4.2501057E+01  1.5687057E+02
 4.2524700E+01  1.5613451E+02
 4.2548344E+01  1.5542593E+02
 4.2571987E+01  1.5486546E+02
 4.2595634E+01  1.5453056E+02
 4.2619278E+01  1.5455086E+02
 4.2642921E+01  1.5435542E+02
 4.2666565E+01  1.5412398E+02
 4.2690212E+01  1.5405779E+02
 4.2713856E+01  1.5379546E+02
 4.2737499E+01  1.5348856E+02
 4.2761147E+01  1.5318765E+02
 4.2784790E+01  1.5302132E+02
 4.2808434E+01  1.5269727E+02
 4.2832077E+01  1.5271872E+02
 4.2855724E+01  1.5271333E+02
 4.2879368E+01  1.5236420E+02
 4.2903011E+01  1.5212517E+02
 4.2926655E+01  1.5213379E+02
 4.2950302E+01  1.5205431E+02
 4.2973946E+01  1.5208212E+02
 4.2997589E+01  1.5212367E+02
 4.3021236E+01  1.5211406E+02
 4.3044880E+01  1.5224617E+02
 4.3068523E+01  1.5245589E+02
 4.3092167E+01  1.5225418E+02
 4.3115814E+01  1.5223419E+02
 4.3139458E+01  1.5252002E+02
 4.3163101E+01  1.5267018E+02
 4.3186745E+01  1.5268985E+02
 4.3210392E+01  1.5286084E+02
 4.3234035E+01  1.5364256E+02
 4.3257679E+01  1.5548947E+02
 4.3281326E+01  1.6502908E+02
 4.3304970E+01  1.9479269E+02
 4.3328613E+01  2.0647798E+02
 4.3352257E+01  1.7969830E+02
 4.3375904E+01  1.7422858E+02
 4.3399548E+01  2.0112883E+02
 4.3423191E+01  2.1472392E+02
 4.3446835E+01  1.7961932E+02
 4.3470482E+01  1.6057114E+02
 4.3494125E+01  1.5861908E+02
 4.3517769E+01  1.6322583E+02
 4.3541416E+01  1.8141135E+02
 4.3565060E+01  2.3562483E+02
 4.3588703E+01  3.2880191E+02
 4.3612347E+01  3.6552344E+02
 4.3635994E+01  2.9173962E+02
 4.3659637E+01  2.1154353E+02
 4.3683281E+01  1.7474002E+02
 4.3706924E+01  1.6160242E+02
 4.3730572E+01  1.5675626E+02
 4.3754215E+01  1.5469553E+02
 4.3777859E+01  1.5366203E+02
 4.3801506E+01  1.5272043E+02
 4.3825150E+01  1.5202174E+02
 4.3848793E+01  1.5191608E+02
 4.3872437E+01  1.5156604E+02
 4.3896084E+01  1.5129303E+02
 4.3919727E+01  1.5146758E+02
 4.3943371E+01  1.5147801E+02
 4.3967014E+01  1.5156770E+02
 4.3990662E+01  1.5202647E+02
 4.4014305E+01  1.5194872E+02
 4.4037949E+01  1.5128804E+02
 4.4061596E+01  1.5046916E+02
 4.4085239E+01  1.5016098E+02
 4.4108883E+01  1.4999008E+02
 4.4132526E+01  1.5003874E+02
 4.4156174E+01  1.4985689E+02
 4.4179817E+01  1.4952823E+02
 4.4203461E+01  1.4960733E+02
 4.4227104E+01  1.4977663E+02
 4.4250751E+01  1.4962036E+02
 4.4274395E+01  1.4927478E+02
 4.4298038E+01  1.4939301E+02
 4.4321686E+01  1.4936333E+02
 4.4345329E+01  1.4936684E+02
 4.4368973E+01  1.4916545E+02
 4.4392616E+01  1.4907610E+02
 4.4416264E+01  1.4915620E+02
 4.4439907E+01  1.4902209E+02
 4.4463551E+01  1.4923808E+02
 4.4487194E+01  1.4931854E+02
 4.4510841E+01  1.4923004E+02
 4.4534485E+01  1.4935841E+02
 4.4558128E+01  1.4941095E+02
 4.4581776E+01  1.4933549E+02
 4.4605419E+01  1.4928694E+02
 4.4629063E+01  1.4925499E+02
 4.4652706E+01  1.4946495E+02
 4.4676353E+01  1.4945711E+02
 4.4699997E+01  1.4933556E+02
 4.4723640E+01  1.4925349E+02
 4.4747284E+01  1.4950859E+02
 4.4770931E+01  1.4978783E+02
 4.4794575E+01  1.4985156E+02
 4.4818218E+01  1.4995245E+02
 4.4841866E+01  1.5043921E+02
 4.4865509E+01  1.5046527E+02
 4.4889153E+01  1.5057622E+02
 4.4912796E+01  1.5043013E+02
 4.4936443E+01  1.5065057E+02
 4.4960087E+01  1.5051338E+02
 4.4983730E+01  1.5089514E+02
 4.5007374E+01  1.5061472E+02
 4.5031021E+01  1.5026639E+02
 4.5054665E+01  1.4999100E+02
 4.5078308E+01  1.4996622E+02
 4.5101955E+01  1.5050984E+02
 4.5125599E+01  1.5039510E+02
 4.5149242E+01  1.5071605E+02
 4.5172886E+01  1.5072125E+02
 4.5196533E+01  1.5146342E+02
 4.5220177E+01  1.5209116E+02
 4.5243820E+01  1.5249039E+02
 4.5267464E+01  1.5268895E+02
 4.5291111E+01  1.5345540E+02
 4.5314754E+01  1.5397986E+02
 4.5338398E+01  1.5354616E+02
 4.5362045E+01  1.5336557E+02
 4.5385689E+01  1.5321635E+02
 4.5409332E+01  1.5245930E+02
 4.5432976E+01  1.5138216E+02
 4.5456623E+01  1.5097757E+02
 4.5480267E+01  1.5066603E+02
 4.5503910E+01  1.5057140E+02
 4.5527557E+01  1.5041127E+02
 4.5551201E+01  1.5026712E+02
 4.5574844E+01  1.5000410E+02
 4.5598488E+01  1.4980807E+02
 4.5622135E+01  1.5025073E+02
 4.5645779E+01  1.5015793E+02
 4.5669422E+01  1.5024210E+02
 4.5693066E+01  1.5031706E+02
 4.5716713E+01  1.5007765E+02
 4.5740356E+01  1.5047803E+02
 4.5764000E+01  1.5001540E+02
 4.5787647E+01  1.4989059E+02
 4.5811291E+01  1.5019402E+02
 4.5834934E+01  1.5026733E+02
 4.5858578E+01  1.5026730E+02
 4.5882225E+01  1.5046629E+02
 4.5905869E+01  1.5033055E+02
 4.5929512E+01  1.5047470E+02
 4.5953156E+01  1.5041066E+02
 4.5976803E+01  1.5036560E+02
 4.6000446E+01  1.5042767E+02
 4.6024090E+01  1.5043631E+02
 4.6047737E+01  1.5008382E+02
 4.6071381E+01  1.5028568E+02
 4.6095024E+01  1.5069849E+02
 4.6118668E+01  1.5097029E+02
 4.6142315E+01  1.5150912E+02
 4.6165958E+01  1.5199255E+02
 4.6189602E+01  1.5225912E+02
 4.6213245E+01  1.5240770E+02
 4.6236893E+01  1.5301686E+02
 4.6260536E+01  1.5322589E+02
 4.6284180E+01  1.5321782E+02
 4.6307827E+01  1.5272531E+02
 4.6331470E+01  1.5197078E+02
 4.6355114E+01  1.5158524E+02
 4.6378757E+01  1.5144252E+02
 4.6402405E+01  1.5115485E+02
 4.6426048E+01  1.5093593E+02
 4.6449692E+01  1.5150984E+02
 4.6473335E+01  1.5185463E+02
 4.6496983E+01  1.5214259E+02
 4.6520626E+01  1.5194530E+02
 4.6544270E+01  1.5197079E+02
 4.6567917E+01  1.5199640E+02
 4.6591560E+01  1.5284512E+02
 4.6615204E+01  1.5362715E+02
 4.6638847E+01  1.5432898E+02
 4.6662495E+01  1.5312891E+02
 4.6686138E+01  1.5203200E+02
 4.6709782E+01  1.5154396E+02
 4.6733425E+01  1.5154497E+02
 4.6757072E+01  1.5176907E+02
 4.6780716E+01  1.5236711E+02
 4.6804359E+01  1.5292729E+02
 4.6828007E+01  1.5236641E+02
 4.6851650E+01  1.5192081E+02
 4.6875294E+01  1.5340205E+02
 4.6898937E+01  1.5895894E+02
 4.6922585E+01  1.6191937E+02
 4.6946228E+01  1.5642822E+02
 4.6969872E+01  1.5347687E+02
 4.6993515E+01  1.5271437E+02
 4.7017162E+01  1.5275613E+02
 4.7040806E+01  1.5244577E+02
 4.7064449E+01  1.5222670E+02
 4.7088097E+01  1.5181731E+02
 4.7111740E+01  1.5179335E+02
 4.7135384E+01  1.5189619E+02
 4.7159027E+01  1.5194719E+02
 4.7182674E+01  1.5200159E+02
 4.7206318E+01  1.5169588E+02
 4.7229961E+01  1.5152667E+02
 4.7253605E+01  1.5166447E+02
 4.7277252E+01  1.5188208E+02
 4.7300896E+01  1.5164381E+02
 4.7324539E+01  1.5172949E+02
 4.7348186E+01  1.5192407E+02
 4.7371830E+01  1.5171530E+02
 4.7395473E+01  1.5185815E+02
 4.7419117E+01  1.5223105E+02
 4.7442764E+01  1.5221248E+02
 4.7466408E+01  1.5237755E+02
 4.7490051E+01  1.5251910E+02
 4.7513695E+01  1.5320979E+02
 4.7537342E+01  1.5432080E+02
 4.7560986E+01  1.5540457E+02
 4.7584629E+01  1.5794987E+02
 4.7608276E+01  1.6251572E+02
 4.7631920E+01  1.6680461E+02
 4.7655563E+01  1.6859018E+02
 4.7679207E+01  1.7048015E+02
 4.7702854E+01  1.7478807E+02
 4.7726498E+01  1.7920819E+02
 4.7750141E+01  1.7840605E+02
 4.7773785E+01  1.7087350E+02
 4.7797432E+01  1.6329378E+02
 4.7821075E+01  1.5850372E+02
 4.7844719E+01  1.5583289E+02
 4.7868366E+01  1.5486870E+02
 4.7892010E+01  1.5447160E+02
 4.7915653E+01  1.5406564E+02
 4.7939297E+01  1.5371198E+02
 4.7962944E+01  1.5421727E+02
 4.7986588E+01  1.5465152E+02
 4.8010231E+01  1.5597337E+02
 4.8033875E+01  1.5701331E+02
 4.8057522E+01  1.5756125E+02
 4.8081165E+01  1.5979396E+02
 4.8104809E+01  1.6480005E+02
 4.8128456E+01  1.7340237E+02
 4.8152100E+01  1.8076552E+02
 4.8175743E+01  1.8022614E+02
 4.8199387E+01  1.7535878E+02
 4.8223034E+01  1.7386647E+02
 4.8246677E+01  1.7943527E+02
 4.8270321E+01  1.8714330E+02
 4.8293964E+01  1.8614571E+02
 4.8317612E+01  1.7724843E+02
 4.8341255E+01  1.6817076E+02
 4.8364899E+01  1.6362823E+02
 4.8388546E+01  1.6089178E+02
 4.8412189E+01  1.5928629E+02
 4.8435833E+01  1.5803119E+02
 4.8459476E+01  1.5751016E+02
 4.8483124E+01  1.5757201E+02
 4.8506767E+01  1.5731110E+02
 4.8530411E+01  1.5753749E+02
 4.8554058E+01  1.5699684E+02
 4.8577702E+01  1.5629445E+02
 4.8601345E+01  1.5542973E+02
 4.8624989E+01  1.5467389E+02
 4.8648636E+01  1.5449623E+02
 4.8672279E+01  1.5390967E+02
 4.8695923E+01  1.5412625E+02
 4.8719566E+01  1.5371213E+02
 4.8743214E+01  1.5287602E+02
 4.8766857E+01  1.5320042E+02
 4.8790501E+01  1.5326170E+02
 4.8814148E+01  1.5316978E+02
 4.8837791E+01  1.5244666E+02
 4.8861435E+01  1.5321858E+02
 4.8885078E+01  1.5361188E+02
 4.8908726E+01  1.5330379E+02
 4.8932369E+01  1.5326109E+02
 4.8956013E+01  1.5359674E+02
 4.8979656E+01  1.5336517E+02
 4.9003304E+01  1.5350070E+02
 4.9026947E+01  1.5394418E+02
 4.9050591E+01  1.5336220E+02
 4.9074238E+01  1.5319089E+02
 4.9097881E+01  1.5317487E+02
 4.9121525E+01  1.5353896E+02
 4.9145168E+01  1.5384290E+02
 4.9168816E+01  1.5316278E+02
 4.9192459E+01  1.5316028E+02
 4.9216103E+01  1.5335269E+02
 4.9239746E+01  1.5375485E+02
 4.9263393E+01  1.5371860E+02
 4.9287037E+01  1.5397284E+02
 4.9310680E+01  1.5369566E+02
 4.9334328E+01  1.5348438E+02
 4.9357971E+01  1.5402153E+02
 4.9381615E+01  1.5437592E+02
 4.9405258E+01  1.5465959E+02
 4.9428905E+01  1.5478854E+02
 4.9452549E+01  1.5467012E+02
 4.9476192E+01  1.5416745E+02
 4.9499836E+01  1.5519786E+02
 4.9523483E+01  1.5514644E+02
 4.9547127E+01  1.5530574E+02
 4.9570770E+01  1.5598085E+02
 4.9594418E+01  1.5787698E+02
 4.9618061E+01  1.5918773E+02
 4.9641705E+01  1.6174100E+02
 4.9665348E+01  1.6818480E+02
 4.9688995E+01  2.0118660E+02
 4.9712639E+01  3.0357880E+02
 4.9736282E+01  3.2740521E+02
 4.9759926E+01  2.4598727E+02
 4.9783573E+01  2.0590555E+02
 4.9807217E+01  2.3244255E+02
 4.9830860E+01  3.7193518E+02
 4.9854507E+01  5.6155212E+02
 4.9878151E+01  4.3199252E+02
 4.9901794E+01  2.4777473E+02
 4.9925438E+01  1.9147351E+02
 4.9949085E+01  1.7541481E+02
 4.9972729E+01  1.6751051E+02
 4.9996372E+01  1.6368823E+02
 5.0020016E+01  1.6139598E+02
 5.0043663E+01  1.5992950E+02
 5.0067307E+01  1.5992773E+02
 5.0090950E+01  1.6221460E+02
 5.0114597E+01  1.6721620E+02
 5.0138241E+01  1.7074448E+02
 5.0161884E+01  1.7362453E+02
 5.0185528E+01  1.7266043E+02
 5.0209175E+01  1.6914296E+02
 5.0232819E+01  1.6933627E+02
 5.0256462E+01  1.7488814E+02
 5.0280106E+01  1.8279576E+02
 5.0303753E+01  1.8518584E+02
 5.0327396E+01  1.7806801E+02
 5.0351040E+01  1.7161385E+02
 5.0374687E+01  1.6992909E+02
 5.0398331E+01  1.7022995E+02
 5.0421974E+01  1.7004976E+02
 5.0445618E+01  1.6974466E+02
 5.0469265E+01  1.6906648E+02
 5.0492908E+01  1.6618288E+02
 5.0516552E+01  1.6479614E+02
 5.0540195E+01  1.6425757E+02
 5.0563843E+01  1.6560361E+02
 5.0587486E+01  1.6496286E+02
 5.0611130E+01  1.6495886E+02
 5.0634777E+01  1.6492810E+02
 5.0658421E+01  1.6272906E+02
 5.0682064E+01  1.6244899E+02
 5.0705708E+01  1.6027724E+02
 5.0729355E+01  1.5848889E+02
 5.0752998E+01  1.5765578E+02
 5.0776642E+01  1.5736208E+02
 5.0800285E+01  1.5707152E+02
 5.0823933E+01  1.5711400E+02
 5.0847576E+01  1.5720384E+02
 5.0871220E+01  1.5705847E+02
 5.0894867E+01  1.5688722E+02
 5.0918510E+01  1.5634711E+02
 5.0942154E+01  1.5565625E+02
 5.0965797E+01  1.5592924E+02
 5.0989445E+01  1.5526607E+02
 5.1013088E+01  1.5417949E+02
 5.1036732E+01  1.5420787E+02
 5.1060375E+01  1.5395789E+02
 5.1084023E+01  1.5419017E+02
 5.1107666E+01  1.5487357E+02
 5.1131310E+01  1.5373518E+02
 5.1154957E+01  1.5344289E+02
 5.1178600E+01  1.5552979E+02
 5.1202244E+01  1.5647781E+02
 5.1225887E+01  1.5506096E+02
 5.1249535E+01  1.5400423E+02
 5.1273178E+01  1.5543456E+02
 5.1296822E+01  1.5444345E+02
 5.1320465E+01  1.5502419E+02
 5.1344112E+01  1.5264819E+02
 5.1367756E+01  1.5200587E+02
 5.1391399E+01  1.5247823E+02
 5.1415047E+01  1.5398529E+02
 5.1438690E+01  1.5428795E+02
 5.1462334E+01  1.5320724E+02
 5.1485977E+01  1.5403354E+02
 5.1509624E+01  1.5435114E+02
 5.1533268E+01  1.5937975E+02
 5.1556911E+01  1.5981152E+02
 5.1580559E+01  1.6253130E+02
 5.1604202E+01  1.6192270E+02
 5.1627846E+01  1.6023557E+02
 5.1651489E+01  1.5978723E+02
 5.1675137E+01  1.6109291E+02
 5.1698780E+01  1.6675835E+02
 5.1722424E+01  1.6508372E+02
 5.1746067E+01  1.6417751E+02
 5.1769714E+01  1.6150793E+02
 5.1793358E+01  1.5869037E+02
 5.1817001E+01  1.5919302E+02
 5.1840649E+01  1.5894789E+02
 5.1864292E+01  1.5728065E+02
 5.1887936E+01  1.5162895E+02
 5.1911579E+01  1.5713557E+02
 5.1935226E+01  1.5606018E+02
 5.1958870E+01  1.5470683E+02
 5.1982513E+01  1.4896280E+02
 5.2006157E+01  1.4981349E+02
 5.2029804E+01  1.4369547E+02
 5.2053448E+01  1.4153531E+02
 5.2077091E+01  1.3426292E+02
 5.2100739E+01  1.2883611E+02
