V:\SAXS\2014_03\MARCCD\Mar14_04324.mccd: Q-Space Scan
Q (Inverse Nanometres)

       2189
 9.9381749E-03  0.0000000E+00
 2.9814525E-02  0.0000000E+00
 4.9690872E-02  0.0000000E+00
 6.9567226E-02  0.0000000E+00
 8.9443572E-02  0.0000000E+00
 1.0931993E-01  0.0000000E+00
 1.2919627E-01  0.0000000E+00
 1.4907262E-01  0.0000000E+00
 1.6894898E-01  0.0000000E+00
 1.8882532E-01  0.0000000E+00
 2.0870167E-01  0.0000000E+00
 2.2857802E-01  0.0000000E+00
 2.4845438E-01  0.0000000E+00
 2.6833072E-01  0.0000000E+00
 2.8820708E-01  0.0000000E+00
 3.0808342E-01  0.0000000E+00
 3.2795978E-01  0.0000000E+00
 3.4783611E-01  0.0000000E+00
 3.6771247E-01  0.0000000E+00
 3.8758883E-01  0.0000000E+00
 4.0746516E-01  0.0000000E+00
 4.2734152E-01  0.0000000E+00
 4.4721788E-01  0.0000000E+00
 4.6709421E-01  0.0000000E+00
 4.8697057E-01  0.0000000E+00
 5.0684690E-01  0.0000000E+00
 5.2672327E-01  0.0000000E+00
 5.4659963E-01  0.0000000E+00
 5.6647599E-01  0.0000000E+00
 5.8635229E-01  0.0000000E+00
 6.0622865E-01  0.0000000E+00
 6.2610501E-01  0.0000000E+00
 6.4598137E-01  0.0000000E+00
 6.6585773E-01  0.0000000E+00
 6.8573409E-01  0.0000000E+00
 7.0561039E-01  0.0000000E+00
 7.2548676E-01  0.0000000E+00
 7.4536312E-01  0.0000000E+00
 7.6523948E-01  0.0000000E+00
 7.8511584E-01  0.0000000E+00
 8.0499214E-01  0.0000000E+00
 8.2486850E-01  0.0000000E+00
 8.4474486E-01  0.0000000E+00
 8.6462122E-01  0.0000000E+00
 8.8449758E-01  0.0000000E+00
 9.0437388E-01  0.0000000E+00
 9.2425025E-01  0.0000000E+00
 9.4412661E-01  0.0000000E+00
 9.6400297E-01  0.0000000E+00
 9.8387933E-01  0.0000000E+00
 1.0037557E+00  0.0000000E+00
 1.0236320E+00  0.0000000E+00
 1.0435084E+00  0.0000000E+00
 1.0633847E+00  0.0000000E+00
 1.0832610E+00  0.0000000E+00
 1.1031374E+00  0.0000000E+00
 1.1230137E+00  0.0000000E+00
 1.1428901E+00  0.0000000E+00
 1.1627665E+00  0.0000000E+00
 1.1826428E+00  0.0000000E+00
 1.2025192E+00  0.0000000E+00
 1.2223955E+00  0.0000000E+00
 1.2422719E+00  0.0000000E+00
 1.2621483E+00  0.0000000E+00
 1.2820245E+00  0.0000000E+00
 1.3019009E+00  0.0000000E+00
 1.3217772E+00  0.0000000E+00
 1.3416536E+00  0.0000000E+00
 1.3615299E+00  0.0000000E+00
 1.3814063E+00  0.0000000E+00
 1.4012827E+00  0.0000000E+00
 1.4211590E+00  0.0000000E+00
 1.4410354E+00  0.0000000E+00
 1.4609118E+00  0.0000000E+00
 1.4807881E+00  0.0000000E+00
 1.5006644E+00  0.0000000E+00
 1.5205407E+00  0.0000000E+00
 1.5404171E+00  0.0000000E+00
 1.5602934E+00  0.0000000E+00
 1.5801698E+00  0.0000000E+00
 1.6000462E+00  0.0000000E+00
 1.6199225E+00  0.0000000E+00
 1.6397989E+00  0.0000000E+00
 1.6596752E+00  0.0000000E+00
 1.6795516E+00  0.0000000E+00
 1.6994278E+00  0.0000000E+00
 1.7193042E+00  0.0000000E+00
 1.7391806E+00  0.0000000E+00
 1.7590569E+00  0.0000000E+00
 1.7789333E+00  0.0000000E+00
 1.7988096E+00  0.0000000E+00
 1.8186860E+00  0.0000000E+00
 1.8385624E+00  0.0000000E+00
 1.8584387E+00  0.0000000E+00
 1.8783151E+00  0.0000000E+00
 1.8981915E+00  0.0000000E+00
 1.9180677E+00  0.0000000E+00
 1.9379441E+00  0.0000000E+00
 1.9578204E+00  0.0000000E+00
 1.9776968E+00  0.0000000E+00
 1.9975731E+00  0.0000000E+00
 2.0174494E+00  4.9814632E+01
 2.0373259E+00  5.9118591E+01
 2.0572021E+00  6.3722794E+01
 2.0770786E+00  6.4157234E+01
 2.0969548E+00  6.2403030E+01
 2.1168313E+00  6.0923714E+01
 2.1367075E+00  6.0999966E+01
 2.1565840E+00  6.1562210E+01
 2.1764603E+00  6.2353115E+01
 2.1963367E+00  6.2884727E+01
 2.2162130E+00  6.3093765E+01
 2.2360892E+00  6.3233978E+01
 2.2559657E+00  6.3576061E+01
 2.2758420E+00  6.3990231E+01
 2.2957184E+00  6.4453400E+01
 2.3155947E+00  6.4815796E+01
 2.3354712E+00  6.5011261E+01
 2.3553474E+00  6.5482948E+01
 2.3752239E+00  6.5731583E+01
 2.3951001E+00  6.6099213E+01
 2.4149766E+00  6.6551331E+01
 2.4348528E+00  6.6833069E+01
 2.4547291E+00  6.6959831E+01
 2.4746056E+00  6.7005547E+01
 2.4944818E+00  6.7128502E+01
 2.5143583E+00  6.7276115E+01
 2.5342345E+00  6.7741615E+01
 2.5541110E+00  6.8174744E+01
 2.5739872E+00  6.8565811E+01
 2.5938637E+00  6.8728767E+01
 2.6137400E+00  6.8850327E+01
 2.6336164E+00  6.8918076E+01
 2.6534927E+00  6.9040024E+01
 2.6733689E+00  6.9276352E+01
 2.6932454E+00  6.9381737E+01
 2.7131217E+00  6.9548454E+01
 2.7329981E+00  6.9741844E+01
 2.7528744E+00  7.0008186E+01
 2.7727509E+00  7.0306137E+01
 2.7926271E+00  7.0597580E+01
 2.8125036E+00  7.0870804E+01
 2.8323798E+00  7.0936760E+01
 2.8522563E+00  7.0985191E+01
 2.8721325E+00  7.0977814E+01
 2.8920088E+00  7.0951500E+01
 2.9118853E+00  7.1157425E+01
 2.9317615E+00  7.1386536E+01
 2.9516380E+00  7.1690826E+01
 2.9715142E+00  7.1886581E+01
 2.9913907E+00  7.2051903E+01
 3.0112669E+00  7.2250908E+01
 3.0311434E+00  7.2471680E+01
 3.0510197E+00  7.2769699E+01
 3.0708961E+00  7.2975494E+01
 3.0907724E+00  7.3218361E+01
 3.1106486E+00  7.3484566E+01
 3.1305251E+00  7.3290031E+01
 3.1504014E+00  7.3432350E+01
 3.1702778E+00  7.3843735E+01
 3.1901541E+00  7.3794037E+01
 3.2100306E+00  7.3731789E+01
 3.2299068E+00  7.4115936E+01
 3.2497833E+00  7.4143959E+01
 3.2696595E+00  7.4203354E+01
 3.2895358E+00  7.4447762E+01
 3.3094122E+00  7.4543365E+01
 3.3292885E+00  7.4772583E+01
 3.3491650E+00  7.4749336E+01
 3.3690412E+00  7.4811943E+01
 3.3889177E+00  7.4998787E+01
 3.4087939E+00  7.5107147E+01
 3.4286704E+00  7.5154495E+01
 3.4485466E+00  7.5359436E+01
 3.4684231E+00  7.5405487E+01
 3.4882994E+00  7.5453880E+01
 3.5081756E+00  7.5628059E+01
 3.5280521E+00  7.5578239E+01
 3.5479283E+00  7.5517693E+01
 3.5678048E+00  7.5560364E+01
 3.5876811E+00  7.5930946E+01
 3.6075575E+00  7.6324989E+01
 3.6274338E+00  7.6436073E+01
 3.6473103E+00  7.6576218E+01
 3.6671865E+00  7.6832359E+01
 3.6870630E+00  7.6948784E+01
 3.7069392E+00  7.6894669E+01
 3.7268155E+00  7.6994293E+01
 3.7466919E+00  7.7012947E+01
 3.7665682E+00  7.7118095E+01
 3.7864447E+00  7.7066772E+01
 3.8063209E+00  7.7085793E+01
 3.8261974E+00  7.7140427E+01
 3.8460736E+00  7.7335686E+01
 3.8659501E+00  7.7640221E+01
 3.8858263E+00  7.7713058E+01
 3.9057028E+00  7.7658478E+01
 3.9255791E+00  7.7718597E+01
 3.9454553E+00  7.7858032E+01
 3.9653318E+00  7.7999069E+01
 3.9852080E+00  7.8041245E+01
 4.0050845E+00  7.8097687E+01
 4.0249610E+00  7.8009117E+01
 4.0448370E+00  7.7830719E+01
 4.0647135E+00  7.7973709E+01
 4.0845900E+00  7.8190392E+01
 4.1044664E+00  7.8233315E+01
 4.1243424E+00  7.8282326E+01
 4.1442189E+00  7.8498772E+01
 4.1640954E+00  7.8582329E+01
 4.1839714E+00  7.8434807E+01
 4.2038479E+00  7.8502090E+01
 4.2237244E+00  7.8836761E+01
 4.2436008E+00  7.9057045E+01
 4.2634768E+00  7.9004890E+01
 4.2833533E+00  7.9053505E+01
 4.3032298E+00  7.9142570E+01
 4.3231063E+00  7.9225960E+01
 4.3429823E+00  7.9284561E+01
 4.3628588E+00  7.9336922E+01
 4.3827353E+00  7.9343773E+01
 4.4026113E+00  7.9066040E+01
 4.4224877E+00  7.9101395E+01
 4.4423642E+00  7.9363197E+01
 4.4622407E+00  7.9353249E+01
 4.4821167E+00  7.9400589E+01
 4.5019932E+00  7.9327530E+01
 4.5218697E+00  7.9352554E+01
 4.5417461E+00  7.9415733E+01
 4.5616221E+00  7.9760300E+01
 4.5814986E+00  7.9835945E+01
 4.6013751E+00  7.9805199E+01
 4.6212511E+00  7.9765236E+01
 4.6411276E+00  7.9751709E+01
 4.6610041E+00  7.9867416E+01
 4.6808805E+00  7.9958153E+01
 4.7007565E+00  8.0099838E+01
 4.7206330E+00  8.0084175E+01
 4.7405095E+00  8.0190491E+01
 4.7603860E+00  8.0201775E+01
 4.7802620E+00  8.0198784E+01
 4.8001385E+00  8.0233978E+01
 4.8200150E+00  8.0217499E+01
 4.8398910E+00  8.0155899E+01
 4.8597674E+00  8.0139076E+01
 4.8796439E+00  8.0285599E+01
 4.8995204E+00  8.0512993E+01
 4.9193964E+00  8.0523949E+01
 4.9392729E+00  8.0478271E+01
 4.9591494E+00  8.0514435E+01
 4.9790258E+00  8.0536880E+01
 4.9989018E+00  8.0625076E+01
 5.0187783E+00  8.0815681E+01
 5.0386548E+00  8.0797249E+01
 5.0585308E+00  8.0802628E+01
 5.0784073E+00  8.0747452E+01
 5.0982838E+00  8.0771187E+01
 5.1181602E+00  8.0945702E+01
 5.1380363E+00  8.1000771E+01
 5.1579127E+00  8.0951714E+01
 5.1777892E+00  8.1100716E+01
 5.1976652E+00  8.1237610E+01
 5.2175417E+00  8.1165665E+01
 5.2374182E+00  8.1148827E+01
 5.2572947E+00  8.1273102E+01
 5.2771707E+00  8.1133476E+01
 5.2970471E+00  8.0985313E+01
 5.3169236E+00  8.0981544E+01
 5.3368001E+00  8.1053185E+01
 5.3566761E+00  8.1137817E+01
 5.3765526E+00  8.1203239E+01
 5.3964291E+00  8.1169418E+01
 5.4163051E+00  8.1029884E+01
 5.4361815E+00  8.1157455E+01
 5.4560580E+00  8.1388550E+01
 5.4759345E+00  8.1286858E+01
 5.4958105E+00  8.1390114E+01
 5.5156870E+00  8.1487793E+01
 5.5355635E+00  8.1455215E+01
 5.5554399E+00  8.1375114E+01
 5.5753160E+00  8.1205872E+01
 5.5951924E+00  8.1281143E+01
 5.6150689E+00  8.1482071E+01
 5.6349449E+00  8.1505005E+01
 5.6548214E+00  8.1396973E+01
 5.6746979E+00  8.1323166E+01
 5.6945744E+00  8.1258888E+01
 5.7144504E+00  8.1349098E+01
 5.7343268E+00  8.1659889E+01
 5.7542033E+00  8.1581932E+01
 5.7740798E+00  8.1491226E+01
 5.7939558E+00  8.1332054E+01
 5.8138323E+00  8.1351753E+01
 5.8337088E+00  8.1317467E+01
 5.8535848E+00  8.1319275E+01
 5.8734612E+00  8.1443260E+01
 5.8933377E+00  8.1484535E+01
 5.9132142E+00  8.1583427E+01
 5.9330902E+00  8.1695480E+01
 5.9529667E+00  8.1800560E+01
 5.9728432E+00  8.1710030E+01
 5.9927197E+00  8.1507988E+01
 6.0125957E+00  8.1414635E+01
 6.0324721E+00  8.1515800E+01
 6.0523486E+00  8.1750107E+01
 6.0722246E+00  8.1930054E+01
 6.0921011E+00  8.1975945E+01
 6.1119776E+00  8.1921471E+01
 6.1318541E+00  8.1783524E+01
 6.1517301E+00  8.1837593E+01
 6.1716065E+00  8.2017540E+01
 6.1914830E+00  8.1884193E+01
 6.2113595E+00  8.1788536E+01
 6.2312355E+00  8.1602692E+01
 6.2511120E+00  8.1637436E+01
 6.2709885E+00  8.1667831E+01
 6.2908645E+00  8.1724899E+01
 6.3107409E+00  8.1958160E+01
 6.3306174E+00  8.2112694E+01
 6.3504939E+00  8.2013115E+01
 6.3703699E+00  8.1872528E+01
 6.3902464E+00  8.1894882E+01
 6.4101229E+00  8.1855591E+01
 6.4299994E+00  8.1826294E+01
 6.4498754E+00  8.1983948E+01
 6.4697518E+00  8.1953926E+01
 6.4896283E+00  8.1822609E+01
 6.5095043E+00  8.1791008E+01
 6.5293808E+00  8.1874321E+01
 6.5492573E+00  8.1829491E+01
 6.5691338E+00  8.1822029E+01
 6.5890098E+00  8.1732895E+01
 6.6088862E+00  8.1746284E+01
 6.6287627E+00  8.1788383E+01
 6.6486392E+00  8.1707909E+01
 6.6685152E+00  8.1722221E+01
 6.6883917E+00  8.1768402E+01
 6.7082682E+00  8.1823128E+01
 6.7281442E+00  8.1869614E+01
 6.7480206E+00  8.2040565E+01
 6.7678971E+00  8.2119492E+01
 6.7877736E+00  8.1916771E+01
 6.8076496E+00  8.1765968E+01
 6.8275261E+00  8.1923515E+01
 6.8474026E+00  8.2022110E+01
 6.8672791E+00  8.1999702E+01
 6.8871551E+00  8.1893852E+01
 6.9070315E+00  8.1925247E+01
 6.9269080E+00  8.1979942E+01
 6.9467840E+00  8.1912224E+01
 6.9666605E+00  8.1810753E+01
 6.9865370E+00  8.1713318E+01
 7.0064135E+00  8.1588982E+01
 7.0262895E+00  8.1440201E+01
 7.0461659E+00  8.1395584E+01
 7.0660424E+00  8.1648521E+01
 7.0859189E+00  8.1666641E+01
 7.1057949E+00  8.1498138E+01
 7.1256714E+00  8.1383614E+01
 7.1455479E+00  8.1468346E+01
 7.1654239E+00  8.1538681E+01
 7.1853004E+00  8.1476250E+01
 7.2051768E+00  8.1539398E+01
 7.2250533E+00  8.1533173E+01
 7.2449293E+00  8.1529793E+01
 7.2648058E+00  8.1532898E+01
 7.2846823E+00  8.1570885E+01
 7.3045588E+00  8.1587425E+01
 7.3244348E+00  8.1554871E+01
 7.3443112E+00  8.1440109E+01
 7.3641877E+00  8.1461769E+01
 7.3840637E+00  8.1621170E+01
 7.4039402E+00  8.1763885E+01
 7.4238167E+00  8.1803055E+01
 7.4436932E+00  8.1721466E+01
 7.4635692E+00  8.1670990E+01
 7.4834456E+00  8.1557663E+01
 7.5033221E+00  8.1411003E+01
 7.5231986E+00  8.1467613E+01
 7.5430746E+00  8.1445328E+01
 7.5629511E+00  8.1376572E+01
 7.5828276E+00  8.1338943E+01
 7.6027036E+00  8.1433617E+01
 7.6225801E+00  8.1584610E+01
 7.6424565E+00  8.1718315E+01
 7.6623330E+00  8.1598946E+01
 7.6822090E+00  8.1542381E+01
 7.7020855E+00  8.1522591E+01
 7.7219620E+00  8.1369812E+01
 7.7418380E+00  8.1162979E+01
 7.7617145E+00  8.1153099E+01
 7.7815909E+00  8.1261108E+01
 7.8014674E+00  8.1316513E+01
 7.8213434E+00  8.1171455E+01
 7.8412199E+00  8.1042175E+01
 7.8610964E+00  8.1116997E+01
 7.8809729E+00  8.1231331E+01
 7.9008489E+00  8.1387062E+01
 7.9207253E+00  8.1306274E+01
 7.9406018E+00  8.1200630E+01
 7.9604778E+00  8.1244827E+01
 7.9803543E+00  8.1195335E+01
 8.0002308E+00  8.1126869E+01
 8.0201073E+00  8.1138268E+01
 8.0399837E+00  8.1218750E+01
 8.0598602E+00  8.1104431E+01
 8.0797358E+00  8.1009109E+01
 8.0996122E+00  8.1066589E+01
 8.1194887E+00  8.1040077E+01
 8.1393652E+00  8.1027710E+01
 8.1592417E+00  8.1017853E+01
 8.1791182E+00  8.0960747E+01
 8.1989946E+00  8.0889442E+01
 8.2188702E+00  8.0885132E+01
 8.2387466E+00  8.1060417E+01
 8.2586231E+00  8.1180725E+01
 8.2784996E+00  8.1097519E+01
 8.2983761E+00  8.0993347E+01
 8.3182526E+00  8.0833290E+01
 8.3381290E+00  8.0649780E+01
 8.3580055E+00  8.0733315E+01
 8.3778811E+00  8.0675011E+01
 8.3977575E+00  8.0576408E+01
 8.4176340E+00  8.0781418E+01
 8.4375105E+00  8.1025719E+01
 8.4573870E+00  8.0953110E+01
 8.4772635E+00  8.0771294E+01
 8.4971399E+00  8.0748634E+01
 8.5170155E+00  8.0688408E+01
 8.5368919E+00  8.0527115E+01
 8.5567684E+00  8.0428902E+01
 8.5766449E+00  8.0400787E+01
 8.5965214E+00  8.0413124E+01
 8.6163979E+00  8.0395493E+01
 8.6362743E+00  8.0261665E+01
 8.6561499E+00  8.0216415E+01
 8.6760263E+00  8.0260689E+01
 8.6959028E+00  8.0253029E+01
 8.7157793E+00  8.0259308E+01
 8.7356558E+00  8.0163750E+01
 8.7555323E+00  8.0081772E+01
 8.7754087E+00  8.0091713E+01
 8.7952852E+00  8.0146828E+01
 8.8151608E+00  8.0184853E+01
 8.8350372E+00  8.0176445E+01
 8.8549137E+00  8.0082817E+01
 8.8747902E+00  7.9962372E+01
 8.8946667E+00  7.9893097E+01
 8.9145432E+00  7.9926773E+01
 8.9344196E+00  7.9882866E+01
 8.9542952E+00  7.9908836E+01
 8.9741716E+00  7.9906883E+01
 8.9940481E+00  7.9794403E+01
 9.0139246E+00  7.9830147E+01
 9.0338011E+00  7.9790627E+01
 9.0536776E+00  7.9872208E+01
 9.0735540E+00  7.9823608E+01
 9.0934296E+00  7.9635757E+01
 9.1133060E+00  7.9525154E+01
 9.1331825E+00  7.9511879E+01
 9.1530590E+00  7.9418739E+01
 9.1729355E+00  7.9530464E+01
 9.1928120E+00  7.9621506E+01
 9.2126884E+00  7.9674927E+01
 9.2325640E+00  7.9630272E+01
 9.2524405E+00  7.9585724E+01
 9.2723169E+00  7.9515549E+01
 9.2921934E+00  7.9585960E+01
 9.3120699E+00  7.9562088E+01
 9.3319464E+00  7.9479927E+01
 9.3518229E+00  7.9390244E+01
 9.3716993E+00  7.9317955E+01
 9.3915749E+00  7.9314095E+01
 9.4114513E+00  7.9341133E+01
 9.4313278E+00  7.9283691E+01
 9.4512043E+00  7.9155540E+01
 9.4710808E+00  7.9050629E+01
 9.4909573E+00  7.9069809E+01
 9.5108337E+00  7.9164848E+01
 9.5307093E+00  7.9145134E+01
 9.5505857E+00  7.9117813E+01
 9.5704622E+00  7.9070595E+01
 9.5903387E+00  7.9044006E+01
 9.6102152E+00  7.8913361E+01
 9.6300917E+00  7.8818604E+01
 9.6499681E+00  7.8692101E+01
 9.6698437E+00  7.8578430E+01
 9.6897202E+00  7.8500824E+01
 9.7095966E+00  7.8490997E+01
 9.7294731E+00  7.8438271E+01
 9.7493496E+00  7.8414955E+01
 9.7692261E+00  7.8418976E+01
 9.7891026E+00  7.8485626E+01
 9.8089790E+00  7.8527740E+01
 9.8288546E+00  7.8521126E+01
 9.8487310E+00  7.8507103E+01
 9.8686075E+00  7.8498878E+01
 9.8884840E+00  7.8519234E+01
 9.9083605E+00  7.8431671E+01
 9.9282370E+00  7.8307404E+01
 9.9481134E+00  7.8239754E+01
 9.9679890E+00  7.8256790E+01
 9.9878654E+00  7.8327660E+01
 1.0007742E+01  7.8476898E+01
 1.0027618E+01  7.8477257E+01
 1.0047495E+01  7.8219910E+01
 1.0067371E+01  7.8089729E+01
 1.0087248E+01  7.8066650E+01
 1.0107123E+01  7.7958664E+01
 1.0127000E+01  7.7873703E+01
 1.0146876E+01  7.7854073E+01
 1.0166753E+01  7.7768387E+01
 1.0186629E+01  7.7663147E+01
 1.0206506E+01  7.7642563E+01
 1.0226382E+01  7.7670189E+01
 1.0246259E+01  7.7757874E+01
 1.0266134E+01  7.7740921E+01
 1.0286011E+01  7.7642632E+01
 1.0305887E+01  7.7760368E+01
 1.0325764E+01  7.7854042E+01
 1.0345640E+01  7.7831169E+01
 1.0365517E+01  7.7780106E+01
 1.0385393E+01  7.7772552E+01
 1.0405269E+01  7.7770348E+01
 1.0425145E+01  7.7567497E+01
 1.0445022E+01  7.7340195E+01
 1.0464898E+01  7.7089722E+01
 1.0484775E+01  7.7068771E+01
 1.0504651E+01  7.7160141E+01
 1.0524528E+01  7.7236420E+01
 1.0544403E+01  7.7361717E+01
 1.0564280E+01  7.7365341E+01
 1.0584156E+01  7.7338188E+01
 1.0604033E+01  7.7105743E+01
 1.0623909E+01  7.6889404E+01
 1.0643785E+01  7.6833260E+01
 1.0663662E+01  7.6900940E+01
 1.0683538E+01  7.7015549E+01
 1.0703414E+01  7.6920097E+01
 1.0723290E+01  7.6857018E+01
 1.0743167E+01  7.6813530E+01
 1.0763043E+01  7.6734177E+01
 1.0782920E+01  7.6638603E+01
 1.0802796E+01  7.6771469E+01
 1.0822673E+01  7.6812096E+01
 1.0842548E+01  7.6680946E+01
 1.0862425E+01  7.6651306E+01
 1.0882301E+01  7.6687752E+01
 1.0902178E+01  7.6653816E+01
 1.0922054E+01  7.6489975E+01
 1.0941931E+01  7.6388336E+01
 1.0961807E+01  7.6317039E+01
 1.0981683E+01  7.6320206E+01
 1.1001559E+01  7.6354736E+01
 1.1021436E+01  7.6369202E+01
 1.1041312E+01  7.6333557E+01
 1.1061189E+01  7.6298973E+01
 1.1081065E+01  7.6194107E+01
 1.1100942E+01  7.6165359E+01
 1.1120818E+01  7.6159363E+01
 1.1140694E+01  7.6015938E+01
 1.1160570E+01  7.5997871E+01
 1.1180447E+01  7.5979187E+01
 1.1200323E+01  7.5918198E+01
 1.1220200E+01  7.5791298E+01
 1.1240076E+01  7.5718987E+01
 1.1259953E+01  7.5694183E+01
 1.1279828E+01  7.5599968E+01
 1.1299705E+01  7.5697495E+01
 1.1319581E+01  7.5697052E+01
 1.1339458E+01  7.5669289E+01
 1.1359334E+01  7.5630348E+01
 1.1379210E+01  7.5678658E+01
 1.1399087E+01  7.5677872E+01
 1.1418962E+01  7.5518234E+01
 1.1438839E+01  7.5405014E+01
 1.1458715E+01  7.5417976E+01
 1.1478592E+01  7.5373222E+01
 1.1498468E+01  7.5316795E+01
 1.1518345E+01  7.5221390E+01
 1.1538221E+01  7.5169922E+01
 1.1558097E+01  7.5057175E+01
 1.1577973E+01  7.5014923E+01
 1.1597850E+01  7.5010437E+01
 1.1617726E+01  7.5038689E+01
 1.1637603E+01  7.5012001E+01
 1.1657479E+01  7.4913551E+01
 1.1677356E+01  7.4925285E+01
 1.1697232E+01  7.4906662E+01
 1.1717108E+01  7.4762138E+01
 1.1736984E+01  7.4625534E+01
 1.1756861E+01  7.4582748E+01
 1.1776737E+01  7.4566132E+01
 1.1796614E+01  7.4628128E+01
 1.1816490E+01  7.4501785E+01
 1.1836367E+01  7.4340050E+01
 1.1856242E+01  7.4119431E+01
 1.1876119E+01  7.4050865E+01
 1.1895995E+01  7.4130508E+01
 1.1915872E+01  7.4129959E+01
 1.1935748E+01  7.4124535E+01
 1.1955625E+01  7.4028961E+01
 1.1975501E+01  7.3864601E+01
 1.1995377E+01  7.3711876E+01
 1.2015253E+01  7.3601158E+01
 1.2035130E+01  7.3561241E+01
 1.2055006E+01  7.3600540E+01
 1.2074883E+01  7.3621437E+01
 1.2094759E+01  7.3535492E+01
 1.2114635E+01  7.3467438E+01
 1.2134512E+01  7.3278343E+01
 1.2154387E+01  7.3153000E+01
 1.2174264E+01  7.3134964E+01
 1.2194140E+01  7.3174301E+01
 1.2214017E+01  7.3111374E+01
 1.2233893E+01  7.3078918E+01
 1.2253770E+01  7.2950958E+01
 1.2273646E+01  7.2780640E+01
 1.2293522E+01  7.2745773E+01
 1.2313398E+01  7.2658310E+01
 1.2333275E+01  7.2609177E+01
 1.2353151E+01  7.2613091E+01
 1.2373028E+01  7.2422012E+01
 1.2392904E+01  7.2237297E+01
 1.2412781E+01  7.2238907E+01
 1.2432656E+01  7.2199135E+01
 1.2452533E+01  7.2073372E+01
 1.2472409E+01  7.1982979E+01
 1.2492286E+01  7.1888062E+01
 1.2512162E+01  7.1844826E+01
 1.2532039E+01  7.1867691E+01
 1.2551915E+01  7.1745796E+01
 1.2571792E+01  7.1648453E+01
 1.2591667E+01  7.1465141E+01
 1.2611544E+01  7.1334190E+01
 1.2631420E+01  7.1216934E+01
 1.2651297E+01  7.1133125E+01
 1.2671173E+01  7.1077820E+01
 1.2691050E+01  7.0972519E+01
 1.2710926E+01  7.0903702E+01
 1.2730802E+01  7.0898819E+01
 1.2750678E+01  7.0702850E+01
 1.2770555E+01  7.0532310E+01
 1.2790431E+01  7.0491859E+01
 1.2810308E+01  7.0463409E+01
 1.2830184E+01  7.0390251E+01
 1.2850060E+01  7.0224220E+01
 1.2869936E+01  7.0079788E+01
 1.2889812E+01  7.0020866E+01
 1.2909689E+01  6.9938324E+01
 1.2929565E+01  6.9897293E+01
 1.2949442E+01  6.9815781E+01
 1.2969318E+01  6.9803375E+01
 1.2989195E+01  6.9724098E+01
 1.3009071E+01  6.9507805E+01
 1.3028947E+01  6.9364754E+01
 1.3048823E+01  6.9374489E+01
 1.3068700E+01  6.9465675E+01
 1.3088576E+01  6.9373619E+01
 1.3108453E+01  6.9270042E+01
 1.3128329E+01  6.9182457E+01
 1.3148206E+01  6.9097939E+01
 1.3168081E+01  6.8959137E+01
 1.3187958E+01  6.8847275E+01
 1.3207834E+01  6.8719337E+01
 1.3227711E+01  6.8611305E+01
 1.3247587E+01  6.8623947E+01
 1.3267464E+01  6.8414490E+01
 1.3287340E+01  6.8259377E+01
 1.3307216E+01  6.8192726E+01
 1.3327092E+01  6.8168716E+01
 1.3346969E+01  6.8088531E+01
 1.3366845E+01  6.7989784E+01
 1.3386722E+01  6.7994209E+01
 1.3406598E+01  6.7927376E+01
 1.3426475E+01  6.7843056E+01
 1.3446351E+01  6.7707329E+01
 1.3466227E+01  6.7557823E+01
 1.3486103E+01  6.7503670E+01
 1.3505980E+01  6.7474976E+01
 1.3525856E+01  6.7403854E+01
 1.3545732E+01  6.7273483E+01
 1.3565609E+01  6.7307335E+01
 1.3585485E+01  6.7174759E+01
 1.3605361E+01  6.7101646E+01
 1.3625237E+01  6.7017311E+01
 1.3645114E+01  6.6938293E+01
 1.3664990E+01  6.6751678E+01
 1.3684867E+01  6.6578842E+01
 1.3704743E+01  6.6504791E+01
 1.3724620E+01  6.6470360E+01
 1.3744495E+01  6.6434631E+01
 1.3764372E+01  6.6490021E+01
 1.3784248E+01  6.6473488E+01
 1.3804125E+01  6.6288528E+01
 1.3824001E+01  6.6112106E+01
 1.3843878E+01  6.5877892E+01
 1.3863754E+01  6.5777237E+01
 1.3883631E+01  6.5764671E+01
 1.3903506E+01  6.5673019E+01
 1.3923383E+01  6.5539810E+01
 1.3943259E+01  6.5486259E+01
 1.3963136E+01  6.5495178E+01
 1.3983012E+01  6.5396301E+01
 1.4002889E+01  6.5344254E+01
 1.4022765E+01  6.5297256E+01
 1.4042641E+01  6.5258995E+01
 1.4062517E+01  6.5196678E+01
 1.4082394E+01  6.5027672E+01
 1.4102270E+01  6.4880684E+01
 1.4122147E+01  6.4792831E+01
 1.4142023E+01  6.4741806E+01
 1.4161900E+01  6.4624390E+01
 1.4181775E+01  6.4512611E+01
 1.4201652E+01  6.4437675E+01
 1.4221528E+01  6.4409637E+01
 1.4241405E+01  6.4337547E+01
 1.4261281E+01  6.4244110E+01
 1.4281157E+01  6.4192848E+01
 1.4301034E+01  6.4112625E+01
 1.4320910E+01  6.3900375E+01
 1.4340786E+01  6.3759972E+01
 1.4360662E+01  6.3767815E+01
 1.4380539E+01  6.3741070E+01
 1.4400415E+01  6.3660645E+01
 1.4420292E+01  6.3574951E+01
 1.4440168E+01  6.3675060E+01
 1.4460045E+01  6.3588512E+01
 1.4479920E+01  6.3424259E+01
 1.4499797E+01  6.3304897E+01
 1.4519673E+01  6.3218117E+01
 1.4539550E+01  6.3130909E+01
 1.4559426E+01  6.3082741E+01
 1.4579303E+01  6.2935844E+01
 1.4599179E+01  6.2817139E+01
 1.4619055E+01  6.2741272E+01
 1.4638931E+01  6.2734035E+01
 1.4658808E+01  6.2738686E+01
 1.4678684E+01  6.2717148E+01
 1.4698561E+01  6.2608376E+01
 1.4718437E+01  6.2516472E+01
 1.4738314E+01  6.2394119E+01
 1.4758189E+01  6.2356319E+01
 1.4778066E+01  6.2264183E+01
 1.4797942E+01  6.2113285E+01
 1.4817819E+01  6.1994808E+01
 1.4837695E+01  6.1804115E+01
 1.4857572E+01  6.1680168E+01
 1.4877448E+01  6.1584244E+01
 1.4897325E+01  6.1569668E+01
 1.4917200E+01  6.1573368E+01
 1.4937077E+01  6.1583824E+01
 1.4956953E+01  6.1527538E+01
 1.4976830E+01  6.1369465E+01
 1.4996706E+01  6.1269043E+01
 1.5016582E+01  6.1188274E+01
 1.5036459E+01  6.1134090E+01
 1.5056334E+01  6.1140579E+01
 1.5076211E+01  6.1072788E+01
 1.5096087E+01  6.0943558E+01
 1.5115964E+01  6.0797909E+01
 1.5135840E+01  6.0689575E+01
 1.5155717E+01  6.0580196E+01
 1.5175593E+01  6.0560677E+01
 1.5195469E+01  6.0397659E+01
 1.5215345E+01  6.0323292E+01
 1.5235222E+01  6.0400959E+01
 1.5255098E+01  6.0296543E+01
 1.5274975E+01  6.0167942E+01
 1.5294851E+01  6.0088390E+01
 1.5314728E+01  6.0069035E+01
 1.5334604E+01  5.9963120E+01
 1.5354480E+01  5.9826729E+01
 1.5374356E+01  5.9751770E+01
 1.5394233E+01  5.9669258E+01
 1.5414109E+01  5.9548763E+01
 1.5433986E+01  5.9455151E+01
 1.5453862E+01  5.9409775E+01
 1.5473739E+01  5.9328156E+01
 1.5493614E+01  5.9260426E+01
 1.5513491E+01  5.9169456E+01
 1.5533367E+01  5.9106094E+01
 1.5553244E+01  5.9093563E+01
 1.5573120E+01  5.9026913E+01
 1.5592997E+01  5.8913525E+01
 1.5612873E+01  5.8853302E+01
 1.5632749E+01  5.8769417E+01
 1.5652625E+01  5.8712505E+01
 1.5672502E+01  5.8639866E+01
 1.5692378E+01  5.8602028E+01
 1.5712255E+01  5.8560829E+01
 1.5732131E+01  5.8484837E+01
 1.5752007E+01  5.8399860E+01
 1.5771884E+01  5.8349403E+01
 1.5791759E+01  5.8307163E+01
 1.5811636E+01  5.8227940E+01
 1.5831512E+01  5.8091652E+01
 1.5851389E+01  5.7980682E+01
 1.5871265E+01  5.7989498E+01
 1.5891142E+01  5.8014046E+01
 1.5911018E+01  5.7988644E+01
 1.5930894E+01  5.7914482E+01
 1.5950770E+01  5.7809689E+01
 1.5970647E+01  5.7690311E+01
 1.5990523E+01  5.7542515E+01
 1.6010399E+01  5.7475521E+01
 1.6030275E+01  5.7424332E+01
 1.6050152E+01  5.7306984E+01
 1.6070028E+01  5.7212044E+01
 1.6089905E+01  5.7196880E+01
 1.6109781E+01  5.7131886E+01
 1.6129658E+01  5.7052029E+01
 1.6149534E+01  5.6989231E+01
 1.6169411E+01  5.6906395E+01
 1.6189287E+01  5.6785316E+01
 1.6209164E+01  5.6666508E+01
 1.6229040E+01  5.6707554E+01
 1.6248917E+01  5.6755600E+01
 1.6268793E+01  5.6565384E+01
 1.6288668E+01  5.6331539E+01
 1.6308544E+01  5.6246082E+01
 1.6328421E+01  5.6143776E+01
 1.6348297E+01  5.6079906E+01
 1.6368174E+01  5.6009842E+01
 1.6388050E+01  5.5968647E+01
 1.6407927E+01  5.5952839E+01
 1.6427803E+01  5.5871002E+01
 1.6447680E+01  5.5763283E+01
 1.6467556E+01  5.5657162E+01
 1.6487432E+01  5.5577259E+01
 1.6507309E+01  5.5500015E+01
 1.6527185E+01  5.5424915E+01
 1.6547062E+01  5.5345802E+01
 1.6566938E+01  5.5350960E+01
 1.6586813E+01  5.5401386E+01
 1.6606689E+01  5.5389805E+01
 1.6626566E+01  5.5319530E+01
 1.6646442E+01  5.5223095E+01
 1.6666319E+01  5.5192581E+01
 1.6686195E+01  5.5069935E+01
 1.6706072E+01  5.4940857E+01
 1.6725948E+01  5.4923931E+01
 1.6745825E+01  5.4871723E+01
 1.6765701E+01  5.4764950E+01
 1.6785578E+01  5.4720810E+01
 1.6805454E+01  5.4628231E+01
 1.6825331E+01  5.4613087E+01
 1.6845207E+01  5.4598286E+01
 1.6865082E+01  5.4526104E+01
 1.6884958E+01  5.4387283E+01
 1.6904835E+01  5.4295658E+01
 1.6924711E+01  5.4277294E+01
 1.6944588E+01  5.4194443E+01
 1.6964464E+01  5.4181183E+01
 1.6984341E+01  5.4138035E+01
 1.7004217E+01  5.3997864E+01
 1.7024094E+01  5.3876194E+01
 1.7043970E+01  5.3842957E+01
 1.7063847E+01  5.3854797E+01
 1.7083723E+01  5.3794067E+01
 1.7103600E+01  5.3768658E+01
 1.7123476E+01  5.3740513E+01
 1.7143353E+01  5.3693855E+01
 1.7163227E+01  5.3578045E+01
 1.7183104E+01  5.3439106E+01
 1.7202980E+01  5.3328381E+01
 1.7222857E+01  5.3285385E+01
 1.7242733E+01  5.3285839E+01
 1.7262609E+01  5.3345730E+01
 1.7282486E+01  5.3314739E+01
 1.7302362E+01  5.3219524E+01
 1.7322239E+01  5.3106190E+01
 1.7342115E+01  5.3009232E+01
 1.7361992E+01  5.2943981E+01
 1.7381868E+01  5.2806229E+01
 1.7401745E+01  5.2747036E+01
 1.7421621E+01  5.2771557E+01
 1.7441498E+01  5.2772835E+01
 1.7461372E+01  5.2703773E+01
 1.7481249E+01  5.2607563E+01
 1.7501125E+01  5.2575481E+01
 1.7521002E+01  5.2531742E+01
 1.7540878E+01  5.2542698E+01
 1.7560755E+01  5.2547977E+01
 1.7580631E+01  5.2492149E+01
 1.7600508E+01  5.2518990E+01
 1.7620384E+01  5.2463757E+01
 1.7640261E+01  5.2367329E+01
 1.7660137E+01  5.2291664E+01
 1.7680014E+01  5.2222572E+01
 1.7699890E+01  5.2170956E+01
 1.7719767E+01  5.2092342E+01
 1.7739641E+01  5.1946739E+01
 1.7759518E+01  5.1848988E+01
 1.7779394E+01  5.1765949E+01
 1.7799271E+01  5.1683567E+01
 1.7819147E+01  5.1617031E+01
 1.7839024E+01  5.1614468E+01
 1.7858900E+01  5.1551044E+01
 1.7878777E+01  5.1537590E+01
 1.7898653E+01  5.1512722E+01
 1.7918530E+01  5.1358479E+01
 1.7938406E+01  5.1235584E+01
 1.7958282E+01  5.1261208E+01
 1.7978159E+01  5.1214088E+01
 1.7998035E+01  5.1141663E+01
 1.8017912E+01  5.1138870E+01
 1.8037786E+01  5.1020382E+01
 1.8057663E+01  5.0872330E+01
 1.8077539E+01  5.0785568E+01
 1.8097416E+01  5.0724144E+01
 1.8117292E+01  5.0698677E+01
 1.8137169E+01  5.0706734E+01
 1.8157045E+01  5.0662281E+01
 1.8176922E+01  5.0482285E+01
 1.8196798E+01  5.0410576E+01
 1.8216675E+01  5.0378315E+01
 1.8236551E+01  5.0289162E+01
 1.8256428E+01  5.0241116E+01
 1.8276304E+01  5.0138535E+01
 1.8296181E+01  5.0116081E+01
 1.8316057E+01  5.0086117E+01
 1.8335932E+01  5.0016922E+01
 1.8355808E+01  4.9943436E+01
 1.8375685E+01  4.9900063E+01
 1.8395561E+01  4.9870136E+01
 1.8415438E+01  4.9813965E+01
 1.8435314E+01  4.9764030E+01
 1.8455191E+01  4.9687080E+01
 1.8475067E+01  4.9696102E+01
 1.8494944E+01  4.9634487E+01
 1.8514820E+01  4.9481392E+01
 1.8534697E+01  4.9437244E+01
 1.8554573E+01  4.9365330E+01
 1.8574450E+01  4.9265293E+01
 1.8594326E+01  4.9195259E+01
 1.8614201E+01  4.9155361E+01
 1.8634077E+01  4.9135685E+01
 1.8653954E+01  4.9084373E+01
 1.8673830E+01  4.8984013E+01
 1.8693707E+01  4.8947548E+01
 1.8713583E+01  4.8905262E+01
 1.8733459E+01  4.8849323E+01
 1.8753336E+01  4.8794842E+01
 1.8773212E+01  4.8715748E+01
 1.8793089E+01  4.8605255E+01
 1.8812965E+01  4.8551559E+01
 1.8832842E+01  4.8617386E+01
 1.8852718E+01  4.8568413E+01
 1.8872595E+01  4.8484638E+01
 1.8892471E+01  4.8426838E+01
 1.8912346E+01  4.8441914E+01
 1.8932222E+01  4.8391937E+01
 1.8952099E+01  4.8322689E+01
 1.8971975E+01  4.8271328E+01
 1.8991852E+01  4.8195847E+01
 1.9011728E+01  4.8128544E+01
 1.9031605E+01  4.8034229E+01
 1.9051481E+01  4.7950165E+01
 1.9071358E+01  4.7923290E+01
 1.9091234E+01  4.7817772E+01
 1.9111111E+01  4.7735779E+01
 1.9130987E+01  4.7781570E+01
 1.9150864E+01  4.7785294E+01
 1.9170740E+01  4.7642647E+01
 1.9190615E+01  4.7619568E+01
 1.9210491E+01  4.7578770E+01
 1.9230368E+01  4.7509148E+01
 1.9250244E+01  4.7407883E+01
 1.9270121E+01  4.7341866E+01
 1.9289997E+01  4.7399231E+01
 1.9309874E+01  4.7322479E+01
 1.9329750E+01  4.7242359E+01
 1.9349627E+01  4.7295696E+01
 1.9369503E+01  4.7249840E+01
 1.9389380E+01  4.7136536E+01
 1.9409256E+01  4.7157986E+01
 1.9429132E+01  4.7133991E+01
 1.9449009E+01  4.6951260E+01
 1.9468885E+01  4.6814106E+01
 1.9488760E+01  4.6806881E+01
 1.9508636E+01  4.6853081E+01
 1.9528513E+01  4.6800133E+01
 1.9548389E+01  4.6655121E+01
 1.9568266E+01  4.6562031E+01
 1.9588142E+01  4.6469711E+01
 1.9608019E+01  4.6414909E+01
 1.9627895E+01  4.6367905E+01
 1.9647772E+01  4.6280109E+01
 1.9667648E+01  4.6171371E+01
 1.9687525E+01  4.6088329E+01
 1.9707401E+01  4.6051975E+01
 1.9727278E+01  4.6026386E+01
 1.9747154E+01  4.6073284E+01
 1.9767031E+01  4.6057518E+01
 1.9786905E+01  4.5933426E+01
 1.9806782E+01  4.5901615E+01
 1.9826658E+01  4.5873917E+01
 1.9846535E+01  4.5884811E+01
 1.9866411E+01  4.5888397E+01
 1.9886288E+01  4.5744793E+01
 1.9906164E+01  4.5663132E+01
 1.9926041E+01  4.5551296E+01
 1.9945917E+01  4.5500694E+01
 1.9965794E+01  4.5521656E+01
 1.9985670E+01  4.5456760E+01
 2.0005547E+01  4.5415394E+01
 2.0025423E+01  4.5347950E+01
 2.0045300E+01  4.5314568E+01
 2.0065174E+01  4.5255241E+01
 2.0085051E+01  4.5231743E+01
 2.0104927E+01  4.5203857E+01
 2.0124804E+01  4.5181549E+01
 2.0144680E+01  4.5133644E+01
 2.0164557E+01  4.5115585E+01
 2.0184433E+01  4.5145313E+01
 2.0204309E+01  4.5197124E+01
 2.0224186E+01  4.5278675E+01
 2.0244062E+01  4.5394112E+01
 2.0263939E+01  4.5657726E+01
 2.0283815E+01  4.6034615E+01
 2.0303692E+01  4.6392166E+01
 2.0323568E+01  4.6791855E+01
 2.0343445E+01  4.7240360E+01
 2.0363319E+01  4.7702847E+01
 2.0383196E+01  4.7880165E+01
 2.0403072E+01  4.7898655E+01
 2.0422949E+01  4.7594532E+01
 2.0442825E+01  4.6972248E+01
 2.0462702E+01  4.6233681E+01
 2.0482578E+01  4.5537495E+01
 2.0502455E+01  4.5029957E+01
 2.0522331E+01  4.4734642E+01
 2.0542208E+01  4.4469402E+01
 2.0562084E+01  4.4291584E+01
 2.0581961E+01  4.4198811E+01
 2.0601837E+01  4.4150040E+01
 2.0621714E+01  4.4040592E+01
 2.0641590E+01  4.4001724E+01
 2.0661465E+01  4.3900997E+01
 2.0681341E+01  4.3871147E+01
 2.0701218E+01  4.3842258E+01
 2.0721094E+01  4.3793282E+01
 2.0740971E+01  4.3896202E+01
 2.0760847E+01  4.3950012E+01
 2.0780724E+01  4.4034302E+01
 2.0800600E+01  4.4063099E+01
 2.0820477E+01  4.4102810E+01
 2.0840353E+01  4.4079323E+01
 2.0860229E+01  4.3968288E+01
 2.0880106E+01  4.3800148E+01
 2.0899982E+01  4.3544399E+01
 2.0919859E+01  4.3348759E+01
 2.0939734E+01  4.3184891E+01
 2.0959610E+01  4.3084583E+01
 2.0979486E+01  4.2994507E+01
 2.0999363E+01  4.2965611E+01
 2.1019239E+01  4.2913265E+01
 2.1039116E+01  4.2758560E+01
 2.1058992E+01  4.2650784E+01
 2.1078869E+01  4.2629910E+01
 2.1098745E+01  4.2593468E+01
 2.1118622E+01  4.2600025E+01
 2.1138498E+01  4.2634274E+01
 2.1158375E+01  4.2576656E+01
 2.1178251E+01  4.2482891E+01
 2.1198128E+01  4.2450878E+01
 2.1218004E+01  4.2398094E+01
 2.1237879E+01  4.2380817E+01
 2.1257755E+01  4.2265625E+01
 2.1277632E+01  4.2180416E+01
 2.1297508E+01  4.2216602E+01
 2.1317385E+01  4.2185829E+01
 2.1337261E+01  4.2109741E+01
 2.1357138E+01  4.2127979E+01
 2.1377014E+01  4.2118698E+01
 2.1396891E+01  4.2118290E+01
 2.1416767E+01  4.2099846E+01
 2.1436644E+01  4.2099274E+01
 2.1456520E+01  4.2083462E+01
 2.1476397E+01  4.2040359E+01
 2.1496273E+01  4.1981987E+01
 2.1516150E+01  4.1935085E+01
 2.1536024E+01  4.1880898E+01
 2.1555901E+01  4.1820911E+01
 2.1575777E+01  4.1721260E+01
 2.1595654E+01  4.1590904E+01
 2.1615530E+01  4.1593159E+01
 2.1635406E+01  4.1574028E+01
 2.1655283E+01  4.1554268E+01
 2.1675159E+01  4.1587994E+01
 2.1695036E+01  4.1600754E+01
 2.1714912E+01  4.1528107E+01
 2.1734789E+01  4.1438335E+01
 2.1754665E+01  4.1359482E+01
 2.1774542E+01  4.1312168E+01
 2.1794418E+01  4.1211193E+01
 2.1814293E+01  4.1166309E+01
 2.1834169E+01  4.1155373E+01
 2.1854046E+01  4.1136234E+01
 2.1873922E+01  4.1155449E+01
 2.1893799E+01  4.1142387E+01
 2.1913675E+01  4.1054367E+01
 2.1933552E+01  4.0942387E+01
 2.1953428E+01  4.1007114E+01
 2.1973305E+01  4.0975658E+01
 2.1993181E+01  4.0974720E+01
 2.2013058E+01  4.1031162E+01
 2.2032934E+01  4.0998169E+01
 2.2052811E+01  4.1042805E+01
 2.2072687E+01  4.1090912E+01
 2.2092564E+01  4.1151962E+01
 2.2112438E+01  4.1363148E+01
 2.2132315E+01  4.1635429E+01
 2.2152191E+01  4.1985836E+01
 2.2172068E+01  4.2393311E+01
 2.2191944E+01  4.2790798E+01
 2.2211821E+01  4.3078197E+01
 2.2231697E+01  4.3383480E+01
 2.2251574E+01  4.3704384E+01
 2.2271450E+01  4.4033947E+01
 2.2291327E+01  4.4225807E+01
 2.2311203E+01  4.3871479E+01
 2.2331079E+01  4.3218056E+01
 2.2350956E+01  4.2432621E+01
 2.2370832E+01  4.1927551E+01
 2.2390707E+01  4.1733162E+01
 2.2410583E+01  4.1799294E+01
 2.2430460E+01  4.2099571E+01
 2.2450336E+01  4.2502655E+01
 2.2470213E+01  4.2953648E+01
 2.2490089E+01  4.3355701E+01
 2.2509966E+01  4.3741192E+01
 2.2529842E+01  4.3899136E+01
 2.2549719E+01  4.3817921E+01
 2.2569595E+01  4.3669350E+01
 2.2589472E+01  4.3207920E+01
 2.2609348E+01  4.2448982E+01
 2.2629225E+01  4.1604176E+01
 2.2649101E+01  4.0828220E+01
 2.2668978E+01  4.0296036E+01
 2.2688852E+01  4.0001278E+01
 2.2708729E+01  3.9894360E+01
 2.2728605E+01  3.9797523E+01
 2.2748482E+01  3.9753109E+01
 2.2768358E+01  3.9670177E+01
 2.2788235E+01  3.9615353E+01
 2.2808111E+01  3.9683277E+01
 2.2827988E+01  3.9712620E+01
 2.2847864E+01  3.9708874E+01
 2.2867741E+01  3.9833675E+01
 2.2887617E+01  3.9900188E+01
 2.2907494E+01  3.9947121E+01
 2.2927370E+01  4.0042442E+01
 2.2947247E+01  4.0077084E+01
 2.2967123E+01  4.0189785E+01
 2.2986998E+01  4.0298565E+01
 2.3006874E+01  4.0248596E+01
 2.3026751E+01  3.9994610E+01
 2.3046627E+01  3.9698807E+01
 2.3066504E+01  3.9396847E+01
 2.3086380E+01  3.9130692E+01
 2.3106256E+01  3.8941311E+01
 2.3126133E+01  3.8827190E+01
 2.3146009E+01  3.8788841E+01
 2.3165886E+01  3.8780998E+01
 2.3185762E+01  3.8768967E+01
 2.3205639E+01  3.8717655E+01
 2.3225515E+01  3.8685043E+01
 2.3245392E+01  3.8679947E+01
 2.3265266E+01  3.8677063E+01
 2.3285143E+01  3.8719467E+01
 2.3305019E+01  3.8737434E+01
 2.3324896E+01  3.8775185E+01
 2.3344772E+01  3.8721569E+01
 2.3364649E+01  3.8725197E+01
 2.3384525E+01  3.8741734E+01
 2.3404402E+01  3.8678715E+01
 2.3424278E+01  3.8666824E+01
 2.3444155E+01  3.8602280E+01
 2.3464031E+01  3.8521896E+01
 2.3483908E+01  3.8461056E+01
 2.3503784E+01  3.8431664E+01
 2.3523661E+01  3.8420853E+01
 2.3543537E+01  3.8424381E+01
 2.3563412E+01  3.8494812E+01
 2.3583288E+01  3.8619480E+01
 2.3603165E+01  3.8884773E+01
 2.3623041E+01  3.9186497E+01
 2.3642918E+01  3.9519623E+01
 2.3662794E+01  3.9961227E+01
 2.3682671E+01  4.0448750E+01
 2.3702547E+01  4.0995918E+01
 2.3722424E+01  4.1593552E+01
 2.3742300E+01  4.1995701E+01
 2.3762177E+01  4.1988079E+01
 2.3782053E+01  4.1374771E+01
 2.3801929E+01  4.0201935E+01
 2.3821806E+01  3.9009586E+01
 2.3841682E+01  3.8123783E+01
 2.3861557E+01  3.7505745E+01
 2.3881433E+01  3.7200039E+01
 2.3901310E+01  3.7100342E+01
 2.3921186E+01  3.7037968E+01
 2.3941063E+01  3.7032433E+01
 2.3960939E+01  3.6940277E+01
 2.3980816E+01  3.6880531E+01
 2.4000692E+01  3.6816082E+01
 2.4020569E+01  3.6762398E+01
 2.4040445E+01  3.6765675E+01
 2.4060322E+01  3.6724937E+01
 2.4080198E+01  3.6701927E+01
 2.4100075E+01  3.6626247E+01
 2.4119951E+01  3.6551029E+01
 2.4139826E+01  3.6528374E+01
 2.4159702E+01  3.6498905E+01
 2.4179579E+01  3.6402710E+01
 2.4199455E+01  3.6347713E+01
 2.4219332E+01  3.6344368E+01
 2.4239208E+01  3.6358265E+01
 2.4259085E+01  3.6383007E+01
 2.4278961E+01  3.6337212E+01
 2.4298838E+01  3.6200851E+01
 2.4318714E+01  3.6168465E+01
 2.4338591E+01  3.6119003E+01
 2.4358467E+01  3.6130192E+01
 2.4378344E+01  3.6100025E+01
 2.4398220E+01  3.6113277E+01
 2.4418097E+01  3.6092899E+01
 2.4437971E+01  3.5980652E+01
 2.4457848E+01  3.5927032E+01
 2.4477724E+01  3.5937790E+01
 2.4497601E+01  3.5861916E+01
 2.4517477E+01  3.5775444E+01
 2.4537354E+01  3.5771404E+01
 2.4557230E+01  3.5764038E+01
 2.4577106E+01  3.5706600E+01
 2.4596983E+01  3.5661537E+01
 2.4616859E+01  3.5664532E+01
 2.4636736E+01  3.5636387E+01
 2.4656612E+01  3.5620720E+01
 2.4676489E+01  3.5624699E+01
 2.4696365E+01  3.5565536E+01
 2.4716240E+01  3.5539532E+01
 2.4736116E+01  3.5517990E+01
 2.4755993E+01  3.5501251E+01
 2.4775869E+01  3.5509781E+01
 2.4795746E+01  3.5529095E+01
 2.4815622E+01  3.5512882E+01
 2.4835499E+01  3.5479282E+01
 2.4855375E+01  3.5440739E+01
 2.4875252E+01  3.5372665E+01
 2.4895128E+01  3.5336018E+01
 2.4915005E+01  3.5256729E+01
 2.4934881E+01  3.5189926E+01
 2.4954758E+01  3.5155693E+01
 2.4974634E+01  3.5137653E+01
 2.4994511E+01  3.5077465E+01
 2.5014385E+01  3.5068325E+01
 2.5034262E+01  3.5038898E+01
 2.5054138E+01  3.4987713E+01
 2.5074015E+01  3.4943409E+01
 2.5093891E+01  3.5004742E+01
 2.5113768E+01  3.5029873E+01
 2.5133644E+01  3.4981369E+01
 2.5153521E+01  3.4934963E+01
 2.5173397E+01  3.4899483E+01
 2.5193274E+01  3.4949837E+01
 2.5213150E+01  3.5057407E+01
 2.5233027E+01  3.5124004E+01
 2.5252903E+01  3.5103855E+01
 2.5272779E+01  3.5085697E+01
 2.5292656E+01  3.5141228E+01
 2.5312531E+01  3.5100964E+01
 2.5332407E+01  3.4970882E+01
 2.5352283E+01  3.4889668E+01
 2.5372160E+01  3.4827461E+01
 2.5392036E+01  3.4699387E+01
 2.5411913E+01  3.4610802E+01
 2.5431789E+01  3.4510605E+01
 2.5451666E+01  3.4448288E+01
 2.5471542E+01  3.4389259E+01
 2.5491419E+01  3.4411381E+01
 2.5511295E+01  3.4424080E+01
 2.5531172E+01  3.4371300E+01
 2.5551048E+01  3.4328995E+01
 2.5570925E+01  3.4306442E+01
 2.5590799E+01  3.4354015E+01
 2.5610676E+01  3.4273949E+01
 2.5630552E+01  3.4229343E+01
 2.5650429E+01  3.4281601E+01
 2.5670305E+01  3.4297989E+01
 2.5690182E+01  3.4294281E+01
 2.5710058E+01  3.4289463E+01
 2.5729935E+01  3.4287674E+01
 2.5749811E+01  3.4224190E+01
 2.5769688E+01  3.4174343E+01
 2.5789564E+01  3.4137814E+01
 2.5809441E+01  3.4148201E+01
 2.5829317E+01  3.4097145E+01
 2.5849194E+01  3.3993206E+01
 2.5869070E+01  3.3915783E+01
 2.5888945E+01  3.3822605E+01
 2.5908821E+01  3.3786293E+01
 2.5928698E+01  3.3733448E+01
 2.5948574E+01  3.3655849E+01
 2.5968451E+01  3.3613571E+01
 2.5988327E+01  3.3572407E+01
 2.6008204E+01  3.3603264E+01
 2.6028080E+01  3.3642944E+01
 2.6047956E+01  3.3667183E+01
 2.6067833E+01  3.3609856E+01
 2.6087709E+01  3.3573349E+01
 2.6107586E+01  3.3534935E+01
 2.6127462E+01  3.3438129E+01
 2.6147339E+01  3.3430447E+01
 2.6167215E+01  3.3391632E+01
 2.6187090E+01  3.3349712E+01
 2.6206966E+01  3.3338726E+01
 2.6226843E+01  3.3336609E+01
 2.6246719E+01  3.3266956E+01
 2.6266596E+01  3.3247047E+01
 2.6286472E+01  3.3196526E+01
 2.6306349E+01  3.3164433E+01
 2.6326225E+01  3.3164661E+01
 2.6346102E+01  3.3106667E+01
 2.6365978E+01  3.3063557E+01
 2.6385855E+01  3.3002110E+01
 2.6405731E+01  3.3065708E+01
 2.6425608E+01  3.3067360E+01
 2.6445484E+01  3.3038044E+01
 2.6465359E+01  3.3017929E+01
 2.6485235E+01  3.2989017E+01
 2.6505112E+01  3.3048267E+01
 2.6524988E+01  3.3087467E+01
 2.6544865E+01  3.3176899E+01
 2.6564741E+01  3.3288219E+01
 2.6584618E+01  3.3363178E+01
 2.6604494E+01  3.3497128E+01
 2.6624371E+01  3.3612995E+01
 2.6644247E+01  3.3735271E+01
 2.6664124E+01  3.3836823E+01
 2.6684000E+01  3.3853695E+01
 2.6703876E+01  3.3832294E+01
 2.6723753E+01  3.3836842E+01
 2.6743629E+01  3.3775509E+01
 2.6763504E+01  3.3600330E+01
 2.6783381E+01  3.3322834E+01
 2.6803257E+01  3.3052353E+01
 2.6823133E+01  3.2924015E+01
 2.6843010E+01  3.2825298E+01
 2.6862886E+01  3.2739868E+01
 2.6882763E+01  3.2650433E+01
 2.6902639E+01  3.2680889E+01
 2.6922516E+01  3.2728195E+01
 2.6942392E+01  3.2748878E+01
 2.6962269E+01  3.2755486E+01
 2.6982145E+01  3.2801773E+01
 2.7002022E+01  3.2756863E+01
 2.7021898E+01  3.2850849E+01
 2.7041773E+01  3.2830444E+01
 2.7061649E+01  3.2826729E+01
 2.7081526E+01  3.2790054E+01
 2.7101402E+01  3.2806210E+01
 2.7121279E+01  3.2858265E+01
 2.7141155E+01  3.2932240E+01
 2.7161032E+01  3.2873959E+01
 2.7180908E+01  3.2738426E+01
 2.7200785E+01  3.2578903E+01
 2.7220661E+01  3.2501217E+01
 2.7240538E+01  3.2425713E+01
 2.7260414E+01  3.2321877E+01
 2.7280291E+01  3.2257919E+01
 2.7300167E+01  3.2145008E+01
 2.7320044E+01  3.2096859E+01
 2.7339918E+01  3.2094490E+01
 2.7359795E+01  3.2015430E+01
 2.7379671E+01  3.1958754E+01
 2.7399548E+01  3.1894253E+01
 2.7419424E+01  3.1823895E+01
 2.7439301E+01  3.1756557E+01
 2.7459177E+01  3.1698149E+01
 2.7479053E+01  3.1694923E+01
 2.7498930E+01  3.1687565E+01
 2.7518806E+01  3.1684174E+01
 2.7538683E+01  3.1702784E+01
 2.7558559E+01  3.1774376E+01
 2.7578436E+01  3.1700674E+01
 2.7598312E+01  3.1668362E+01
 2.7618189E+01  3.1636036E+01
 2.7638063E+01  3.1565777E+01
 2.7657940E+01  3.1505232E+01
 2.7677816E+01  3.1484184E+01
 2.7697693E+01  3.1457535E+01
 2.7717569E+01  3.1468035E+01
 2.7737446E+01  3.1462784E+01
 2.7757322E+01  3.1376101E+01
 2.7777199E+01  3.1380108E+01
 2.7797075E+01  3.1378778E+01
 2.7816952E+01  3.1280439E+01
 2.7836828E+01  3.1270628E+01
 2.7856705E+01  3.1291533E+01
 2.7876581E+01  3.1316896E+01
 2.7896458E+01  3.1290754E+01
 2.7916332E+01  3.1276541E+01
 2.7936209E+01  3.1329012E+01
 2.7956085E+01  3.1363020E+01
 2.7975962E+01  3.1409672E+01
 2.7995838E+01  3.1490746E+01
 2.8015715E+01  3.1562733E+01
 2.8035591E+01  3.1657665E+01
 2.8055468E+01  3.1684944E+01
 2.8075344E+01  3.1772734E+01
 2.8095221E+01  3.1804379E+01
 2.8115097E+01  3.1827364E+01
 2.8134974E+01  3.1899401E+01
 2.8154850E+01  3.2024704E+01
 2.8174726E+01  3.2221146E+01
 2.8194603E+01  3.2468266E+01
 2.8214478E+01  3.2664238E+01
 2.8234354E+01  3.2905407E+01
 2.8254230E+01  3.3146004E+01
 2.8274107E+01  3.3403114E+01
 2.8293983E+01  3.3697987E+01
 2.8313860E+01  3.4042152E+01
 2.8333736E+01  3.4412800E+01
 2.8353613E+01  3.4911938E+01
 2.8373489E+01  3.5541134E+01
 2.8393366E+01  3.5917934E+01
 2.8413242E+01  3.5613995E+01
 2.8433119E+01  3.4680302E+01
 2.8452995E+01  3.3619419E+01
 2.8472872E+01  3.2720249E+01
 2.8492748E+01  3.2121254E+01
 2.8512623E+01  3.1842638E+01
 2.8532499E+01  3.1688782E+01
 2.8552376E+01  3.1748905E+01
 2.8572252E+01  3.1845427E+01
 2.8592129E+01  3.1929138E+01
 2.8612005E+01  3.1986595E+01
 2.8631882E+01  3.1941765E+01
 2.8651758E+01  3.1701395E+01
 2.8671635E+01  3.1418200E+01
 2.8691511E+01  3.1173025E+01
 2.8711388E+01  3.0968256E+01
 2.8731264E+01  3.0848015E+01
 2.8751141E+01  3.0764065E+01
 2.8771017E+01  3.0641588E+01
 2.8790892E+01  3.0666946E+01
 2.8810768E+01  3.0716824E+01
 2.8830645E+01  3.0663103E+01
 2.8850521E+01  3.0616276E+01
 2.8870398E+01  3.0581331E+01
 2.8890274E+01  3.0571594E+01
 2.8910151E+01  3.0525320E+01
 2.8930027E+01  3.0524765E+01
 2.8949903E+01  3.0436720E+01
 2.8969780E+01  3.0403202E+01
 2.8989656E+01  3.0451405E+01
 2.9009533E+01  3.0481096E+01
 2.9029409E+01  3.0491331E+01
 2.9049286E+01  3.0452200E+01
 2.9069162E+01  3.0393204E+01
 2.9089037E+01  3.0438370E+01
 2.9108913E+01  3.0392143E+01
 2.9128790E+01  3.0292740E+01
 2.9148666E+01  3.0223791E+01
 2.9168543E+01  3.0204338E+01
 2.9188419E+01  3.0144609E+01
 2.9208296E+01  3.0103704E+01
 2.9228172E+01  3.0142723E+01
 2.9248049E+01  3.0225702E+01
 2.9267925E+01  3.0209034E+01
 2.9287802E+01  3.0181810E+01
 2.9307678E+01  3.0243439E+01
 2.9327555E+01  3.0341408E+01
 2.9347431E+01  3.0386328E+01
 2.9367306E+01  3.0501074E+01
 2.9387182E+01  3.0679420E+01
 2.9407059E+01  3.0834076E+01
 2.9426935E+01  3.0908321E+01
 2.9446812E+01  3.0951359E+01
 2.9466688E+01  3.0984941E+01
 2.9486565E+01  3.1019335E+01
 2.9506441E+01  3.1033472E+01
 2.9526318E+01  3.1001230E+01
 2.9546194E+01  3.1004787E+01
 2.9566071E+01  3.1103333E+01
 2.9585947E+01  3.1164455E+01
 2.9605824E+01  3.1170408E+01
 2.9625700E+01  3.1142319E+01
 2.9645576E+01  3.1163582E+01
 2.9665451E+01  3.1105106E+01
 2.9685328E+01  3.1052887E+01
 2.9705204E+01  3.0958502E+01
 2.9725080E+01  3.0880621E+01
 2.9744957E+01  3.0815571E+01
 2.9764833E+01  3.0702993E+01
 2.9784710E+01  3.0661631E+01
 2.9804586E+01  3.0591265E+01
 2.9824463E+01  3.0556736E+01
 2.9844339E+01  3.0494022E+01
 2.9864216E+01  3.0560705E+01
 2.9884092E+01  3.0671015E+01
 2.9903969E+01  3.0667156E+01
 2.9923845E+01  3.0680887E+01
 2.9943722E+01  3.0725203E+01
 2.9963596E+01  3.0709303E+01
 2.9983473E+01  3.0713511E+01
 3.0003349E+01  3.0674835E+01
 3.0023226E+01  3.0729355E+01
 3.0043102E+01  3.0793863E+01
 3.0062979E+01  3.0864071E+01
 3.0082855E+01  3.0869970E+01
 3.0102732E+01  3.0861738E+01
 3.0122608E+01  3.0881237E+01
 3.0142485E+01  3.0967539E+01
 3.0162361E+01  3.1051529E+01
 3.0182238E+01  3.1171652E+01
 3.0202114E+01  3.1272352E+01
 3.0221991E+01  3.1239906E+01
 3.0241865E+01  3.1178988E+01
 3.0261742E+01  3.1094116E+01
 3.0281618E+01  3.1058823E+01
 3.0301495E+01  3.1014570E+01
 3.0321371E+01  3.0935873E+01
 3.0341248E+01  3.0834349E+01
 3.0361124E+01  3.0799686E+01
 3.0381001E+01  3.0847174E+01
 3.0400877E+01  3.0848364E+01
 3.0420753E+01  3.0883533E+01
 3.0440630E+01  3.0858601E+01
 3.0460506E+01  3.0876970E+01
 3.0480383E+01  3.0943672E+01
 3.0500259E+01  3.0934101E+01
 3.0520136E+01  3.0953672E+01
 3.0540010E+01  3.0908415E+01
 3.0559887E+01  3.0894463E+01
 3.0579763E+01  3.0939186E+01
 3.0599640E+01  3.0943531E+01
 3.0619516E+01  3.0859131E+01
 3.0639393E+01  3.0765291E+01
 3.0659269E+01  3.0721361E+01
 3.0679146E+01  3.0719255E+01
 3.0699022E+01  3.0703421E+01
 3.0718899E+01  3.0677130E+01
 3.0738775E+01  3.0660686E+01
 3.0758652E+01  3.0561153E+01
 3.0778528E+01  3.0552692E+01
 3.0798405E+01  3.0505898E+01
 3.0818281E+01  3.0492060E+01
 3.0838156E+01  3.0504967E+01
 3.0858032E+01  3.0526365E+01
 3.0877909E+01  3.0502720E+01
 3.0897785E+01  3.0441530E+01
 3.0917662E+01  3.0562597E+01
 3.0937538E+01  3.0588978E+01
 3.0957415E+01  3.0575211E+01
 3.0977291E+01  3.0540052E+01
 3.0997168E+01  3.0603121E+01
 3.1017044E+01  3.0575212E+01
 3.1036921E+01  3.0555725E+01
 3.1056797E+01  3.0600561E+01
 3.1076674E+01  3.0708044E+01
 3.1096550E+01  3.0860283E+01
 3.1116425E+01  3.0898901E+01
 3.1136301E+01  3.0871330E+01
 3.1156178E+01  3.0928553E+01
 3.1176054E+01  3.1050484E+01
 3.1195930E+01  3.1119568E+01
 3.1215807E+01  3.1224228E+01
 3.1235683E+01  3.1339285E+01
 3.1255560E+01  3.1508118E+01
 3.1275436E+01  3.1838835E+01
 3.1295313E+01  3.2004189E+01
 3.1315189E+01  3.2097393E+01
 3.1335066E+01  3.2144608E+01
 3.1354942E+01  3.2097122E+01
 3.1374819E+01  3.1973459E+01
 3.1394695E+01  3.1828053E+01
 3.1414570E+01  3.1701336E+01
 3.1434446E+01  3.1326128E+01
 3.1454323E+01  3.1046070E+01
 3.1474199E+01  3.0825880E+01
 3.1494076E+01  3.0693483E+01
 3.1513952E+01  3.0651541E+01
 3.1533829E+01  3.0592844E+01
 3.1553705E+01  3.0559629E+01
 3.1573582E+01  3.0565609E+01
 3.1593458E+01  3.0456818E+01
 3.1613335E+01  3.0404034E+01
 3.1633211E+01  3.0404016E+01
 3.1653088E+01  3.0507725E+01
 3.1672964E+01  3.0544741E+01
 3.1692841E+01  3.0599508E+01
 3.1712715E+01  3.0572872E+01
 3.1732592E+01  3.0614185E+01
 3.1752468E+01  3.0612093E+01
 3.1772345E+01  3.0694422E+01
 3.1792221E+01  3.0764175E+01
 3.1812098E+01  3.0899597E+01
 3.1831974E+01  3.0980494E+01
 3.1851851E+01  3.1014982E+01
 3.1871727E+01  3.1058216E+01
 3.1891603E+01  3.1102249E+01
 3.1911480E+01  3.1142179E+01
 3.1931356E+01  3.1223333E+01
 3.1951233E+01  3.1330225E+01
 3.1971109E+01  3.1534882E+01
 3.1990984E+01  3.1798342E+01
 3.2010860E+01  3.1881186E+01
 3.2030739E+01  3.2153557E+01
 3.2050613E+01  3.2527210E+01
 3.2070492E+01  3.2729134E+01
 3.2090366E+01  3.2857738E+01
 3.2110245E+01  3.3029938E+01
 3.2130119E+01  3.2974422E+01
 3.2149994E+01  3.2569660E+01
 3.2169872E+01  3.2176479E+01
 3.2189747E+01  3.1959692E+01
 3.2209625E+01  3.1768202E+01
 3.2229500E+01  3.1765831E+01
 3.2249378E+01  3.1783655E+01
 3.2269253E+01  3.1829321E+01
 3.2289131E+01  3.1867035E+01
 3.2309006E+01  3.1916193E+01
 3.2328884E+01  3.1972851E+01
 3.2348759E+01  3.1984140E+01
 3.2368637E+01  3.2051922E+01
 3.2388512E+01  3.2046547E+01
 3.2408390E+01  3.2115669E+01
 3.2428265E+01  3.2065792E+01
 3.2448139E+01  3.2253788E+01
 3.2468018E+01  3.2302513E+01
 3.2487892E+01  3.2390133E+01
 3.2507771E+01  3.2447304E+01
 3.2527645E+01  3.2459091E+01
 3.2547523E+01  3.2497158E+01
 3.2567398E+01  3.2501339E+01
 3.2587276E+01  3.2329792E+01
 3.2607151E+01  3.2149700E+01
 3.2627029E+01  3.1931463E+01
 3.2646904E+01  3.1790567E+01
 3.2666782E+01  3.1586510E+01
 3.2686657E+01  3.1487888E+01
 3.2706535E+01  3.1346176E+01
 3.2726410E+01  3.1277891E+01
 3.2746284E+01  3.1204092E+01
 3.2766163E+01  3.1113300E+01
 3.2786037E+01  3.0962576E+01
 3.2805916E+01  3.0956604E+01
 3.2825790E+01  3.0981867E+01
 3.2845669E+01  3.0881201E+01
 3.2865543E+01  3.0848625E+01
 3.2885422E+01  3.0848202E+01
 3.2905296E+01  3.0913841E+01
 3.2925175E+01  3.0923742E+01
 3.2945049E+01  3.0782679E+01
 3.2964928E+01  3.0809107E+01
 3.2984802E+01  3.0801991E+01
 3.3004677E+01  3.0780611E+01
 3.3024555E+01  3.0850454E+01
 3.3044430E+01  3.0841042E+01
 3.3064308E+01  3.0908743E+01
 3.3084183E+01  3.1029312E+01
 3.3104061E+01  3.1122631E+01
 3.3123936E+01  3.1244274E+01
 3.3143814E+01  3.1218784E+01
 3.3163689E+01  3.1093220E+01
 3.3183567E+01  3.1080187E+01
 3.3203442E+01  3.1090351E+01
 3.3223320E+01  3.1037189E+01
 3.3243195E+01  3.1052090E+01
 3.3263073E+01  3.0998098E+01
 3.3282948E+01  3.0908697E+01
 3.3302822E+01  3.0893839E+01
 3.3322701E+01  3.0907793E+01
 3.3342575E+01  3.0865927E+01
 3.3362453E+01  3.0879959E+01
 3.3382328E+01  3.1086334E+01
 3.3402206E+01  3.1139956E+01
 3.3422081E+01  3.1194613E+01
 3.3441959E+01  3.1176939E+01
 3.3461834E+01  3.1252699E+01
 3.3481712E+01  3.1297661E+01
 3.3501587E+01  3.1304344E+01
 3.3521465E+01  3.1489502E+01
 3.3541340E+01  3.1535957E+01
 3.3561218E+01  3.1496410E+01
 3.3581093E+01  3.1729506E+01
 3.3600967E+01  3.1942736E+01
 3.3620846E+01  3.1954460E+01
 3.3640720E+01  3.2043697E+01
 3.3660599E+01  3.2121700E+01
 3.3680473E+01  3.1983583E+01
 3.3700352E+01  3.1920599E+01
 3.3720226E+01  3.1931871E+01
 3.3740105E+01  3.2104095E+01
 3.3759979E+01  3.2361439E+01
 3.3779858E+01  3.2495483E+01
 3.3799732E+01  3.2637608E+01
 3.3819611E+01  3.2704174E+01
 3.3839485E+01  3.2874813E+01
 3.3859364E+01  3.3043243E+01
 3.3879238E+01  3.3031540E+01
 3.3899113E+01  3.2956924E+01
 3.3918991E+01  3.2971714E+01
 3.3938866E+01  3.2978092E+01
 3.3958744E+01  3.2979851E+01
 3.3978619E+01  3.3015373E+01
 3.3998497E+01  3.3036980E+01
 3.4018372E+01  3.2905571E+01
 3.4038250E+01  3.2786221E+01
 3.4058125E+01  3.2858501E+01
 3.4078003E+01  3.2799644E+01
 3.4097878E+01  3.2618145E+01
 3.4117756E+01  3.2390602E+01
 3.4137630E+01  3.2125103E+01
 3.4157509E+01  3.2057400E+01
 3.4177383E+01  3.2091255E+01
 3.4197258E+01  3.2079380E+01
 3.4217136E+01  3.1996357E+01
 3.4237011E+01  3.1945089E+01
 3.4256889E+01  3.1945507E+01
 3.4276764E+01  3.2024078E+01
 3.4296642E+01  3.2012650E+01
 3.4316517E+01  3.2006779E+01
 3.4336395E+01  3.2072430E+01
 3.4356270E+01  3.2078293E+01
 3.4376148E+01  3.2236553E+01
 3.4396023E+01  3.2318516E+01
 3.4415901E+01  3.2331059E+01
 3.4435776E+01  3.2276230E+01
 3.4455650E+01  3.2226749E+01
 3.4475529E+01  3.2315010E+01
 3.4495403E+01  3.2311607E+01
 3.4515282E+01  3.2292736E+01
 3.4535156E+01  3.2416344E+01
 3.4555035E+01  3.2467453E+01
 3.4574909E+01  3.2503544E+01
 3.4594788E+01  3.2633530E+01
 3.4614662E+01  3.2642403E+01
 3.4634541E+01  3.2543636E+01
 3.4654415E+01  3.2591850E+01
 3.4674294E+01  3.2497620E+01
 3.4694168E+01  3.2436153E+01
 3.4714046E+01  3.2381481E+01
 3.4733921E+01  3.2319878E+01
 3.4753796E+01  3.2241837E+01
 3.4773674E+01  3.2241695E+01
 3.4793549E+01  3.2195026E+01
 3.4813427E+01  3.2170685E+01
 3.4833302E+01  3.2209827E+01
 3.4853180E+01  3.2158287E+01
 3.4873055E+01  3.2045853E+01
 3.4892933E+01  3.2091339E+01
 3.4912807E+01  3.2151348E+01
 3.4932686E+01  3.2311520E+01
 3.4952560E+01  3.2526402E+01
 3.4972439E+01  3.2846546E+01
 3.4992313E+01  3.3070023E+01
 3.5012192E+01  3.3424858E+01
 3.5032066E+01  3.3934227E+01
 3.5051941E+01  3.4735050E+01
 3.5071819E+01  3.5476158E+01
 3.5091694E+01  3.6537888E+01
 3.5111572E+01  3.8197517E+01
 3.5131447E+01  4.0146759E+01
 3.5151325E+01  4.2396275E+01
 3.5171200E+01  4.4098969E+01
 3.5191078E+01  4.4180435E+01
 3.5210953E+01  4.2372166E+01
 3.5230831E+01  4.0303734E+01
 3.5250706E+01  3.8999920E+01
 3.5270584E+01  3.8084984E+01
 3.5290459E+01  3.7245850E+01
 3.5310337E+01  3.6271946E+01
 3.5330212E+01  3.5136681E+01
 3.5350086E+01  3.4119682E+01
 3.5369965E+01  3.3374405E+01
 3.5389839E+01  3.2828362E+01
 3.5409718E+01  3.2614594E+01
 3.5429592E+01  3.2478912E+01
 3.5449471E+01  3.2475021E+01
 3.5469345E+01  3.2402100E+01
 3.5489223E+01  3.2263477E+01
 3.5509098E+01  3.2195644E+01
 3.5528976E+01  3.2293236E+01
 3.5548851E+01  3.2205120E+01
 3.5568729E+01  3.2216858E+01
 3.5588604E+01  3.2234486E+01
 3.5608482E+01  3.2196754E+01
 3.5628357E+01  3.2163372E+01
 3.5648232E+01  3.2193214E+01
 3.5668110E+01  3.2131962E+01
 3.5687984E+01  3.2051476E+01
 3.5707863E+01  3.2016228E+01
 3.5727737E+01  3.2088913E+01
 3.5747616E+01  3.2184860E+01
 3.5767490E+01  3.2247498E+01
 3.5787369E+01  3.2060532E+01
 3.5807243E+01  3.2168831E+01
 3.5827122E+01  3.2353661E+01
 3.5846996E+01  3.2346466E+01
 3.5866875E+01  3.2246799E+01
 3.5886749E+01  3.2310005E+01
 3.5906628E+01  3.2435699E+01
 3.5926502E+01  3.2494480E+01
 3.5946377E+01  3.2576485E+01
 3.5966255E+01  3.2542736E+01
 3.5986130E+01  3.2668533E+01
 3.6006008E+01  3.2649899E+01
 3.6025883E+01  3.2541981E+01
 3.6045761E+01  3.2529388E+01
 3.6065636E+01  3.2568966E+01
 3.6085514E+01  3.2642483E+01
 3.6105389E+01  3.2504093E+01
 3.6125267E+01  3.2500782E+01
 3.6145142E+01  3.2554466E+01
 3.6165020E+01  3.2543804E+01
 3.6184895E+01  3.2394886E+01
 3.6204769E+01  3.2467201E+01
 3.6224648E+01  3.2510536E+01
 3.6244522E+01  3.2562370E+01
 3.6264400E+01  3.2683979E+01
 3.6284275E+01  3.2708500E+01
 3.6304153E+01  3.2591873E+01
 3.6324028E+01  3.2618019E+01
 3.6343906E+01  3.2629169E+01
 3.6363781E+01  3.2513157E+01
 3.6383659E+01  3.2471058E+01
 3.6403534E+01  3.2455090E+01
 3.6423412E+01  3.2415382E+01
 3.6443287E+01  3.2549324E+01
 3.6463165E+01  3.2565132E+01
 3.6483040E+01  3.2531906E+01
 3.6502914E+01  3.2563278E+01
 3.6522793E+01  3.2736809E+01
 3.6542667E+01  3.2963032E+01
 3.6562546E+01  3.3216511E+01
 3.6582420E+01  3.3450554E+01
 3.6602299E+01  3.3281231E+01
 3.6622173E+01  3.3176720E+01
 3.6642052E+01  3.3191711E+01
 3.6661926E+01  3.3228088E+01
 3.6681805E+01  3.3191933E+01
 3.6701679E+01  3.3251629E+01
 3.6721558E+01  3.3170124E+01
 3.6741432E+01  3.3097450E+01
 3.6761311E+01  3.3031330E+01
 3.6781185E+01  3.3035416E+01
 3.6801060E+01  3.3051601E+01
 3.6820938E+01  3.3045208E+01
 3.6840813E+01  3.2863930E+01
 3.6860691E+01  3.2720478E+01
 3.6880566E+01  3.2674358E+01
 3.6900444E+01  3.2613632E+01
 3.6920319E+01  3.2610241E+01
 3.6940197E+01  3.2546738E+01
 3.6960072E+01  3.2617287E+01
 3.6979950E+01  3.2576920E+01
 3.6999825E+01  3.2470325E+01
 3.7019703E+01  3.2449219E+01
 3.7039577E+01  3.2466640E+01
 3.7059456E+01  3.2562729E+01
 3.7079330E+01  3.2583015E+01
 3.7099205E+01  3.2554821E+01
 3.7119083E+01  3.2594658E+01
 3.7138958E+01  3.2547863E+01
 3.7158836E+01  3.2542919E+01
 3.7178711E+01  3.2578457E+01
 3.7198589E+01  3.2752598E+01
 3.7218464E+01  3.2718395E+01
 3.7238342E+01  3.2778706E+01
 3.7258217E+01  3.2934799E+01
 3.7278095E+01  3.2850937E+01
 3.7297970E+01  3.2831291E+01
 3.7317848E+01  3.2906185E+01
 3.7337723E+01  3.2842236E+01
 3.7357601E+01  3.2791901E+01
 3.7377476E+01  3.2746037E+01
 3.7397350E+01  3.2755577E+01
 3.7417229E+01  3.2874271E+01
 3.7437103E+01  3.2849380E+01
 3.7456982E+01  3.2675224E+01
 3.7476856E+01  3.2689960E+01
 3.7496735E+01  3.2678680E+01
 3.7516609E+01  3.2815170E+01
 3.7536488E+01  3.2662964E+01
 3.7556362E+01  3.2720440E+01
 3.7576241E+01  3.2668884E+01
 3.7596115E+01  3.2709423E+01
 3.7615993E+01  3.2753101E+01
 3.7635868E+01  3.2814072E+01
 3.7655743E+01  3.2875732E+01
 3.7675621E+01  3.2978882E+01
 3.7695496E+01  3.3116890E+01
 3.7715374E+01  3.3265217E+01
 3.7735249E+01  3.3360088E+01
 3.7755127E+01  3.3454815E+01
 3.7775002E+01  3.3534138E+01
 3.7794880E+01  3.3612930E+01
 3.7814754E+01  3.3867729E+01
 3.7834633E+01  3.3954567E+01
 3.7854507E+01  3.4064941E+01
 3.7874386E+01  3.3987095E+01
 3.7894260E+01  3.3986160E+01
 3.7914139E+01  3.3714626E+01
 3.7934013E+01  3.3602623E+01
 3.7953888E+01  3.3751644E+01
 3.7973766E+01  3.3805328E+01
 3.7993641E+01  3.4127178E+01
 3.8013519E+01  3.4358166E+01
 3.8033394E+01  3.4835354E+01
 3.8053272E+01  3.5271118E+01
 3.8073147E+01  3.5854149E+01
 3.8093025E+01  3.6471699E+01
 3.8112900E+01  3.7392952E+01
 3.8132778E+01  3.8333466E+01
 3.8152653E+01  3.9427441E+01
 3.8172531E+01  4.0220520E+01
 3.8192406E+01  4.0367008E+01
 3.8212284E+01  4.0013351E+01
 3.8232159E+01  3.9533840E+01
 3.8252033E+01  3.8823509E+01
 3.8271912E+01  3.7361412E+01
 3.8291786E+01  3.5969913E+01
 3.8311665E+01  3.4951412E+01
 3.8331539E+01  3.4460613E+01
 3.8351418E+01  3.4291828E+01
 3.8371292E+01  3.4201836E+01
 3.8391171E+01  3.4220345E+01
 3.8411045E+01  3.4053398E+01
 3.8430923E+01  3.3952518E+01
 3.8450798E+01  3.4045525E+01
 3.8470676E+01  3.3870632E+01
 3.8490551E+01  3.3760796E+01
 3.8510429E+01  3.3979095E+01
 3.8530304E+01  3.3961617E+01
 3.8550179E+01  3.3984283E+01
 3.8570057E+01  3.3910397E+01
 3.8589931E+01  3.3862839E+01
 3.8609810E+01  3.3773788E+01
 3.8629684E+01  3.3955021E+01
 3.8649563E+01  3.4082924E+01
 3.8669437E+01  3.4080460E+01
 3.8689316E+01  3.4219727E+01
 3.8709190E+01  3.4268929E+01
 3.8729069E+01  3.4414486E+01
 3.8748943E+01  3.4402527E+01
 3.8768822E+01  3.4418163E+01
 3.8788696E+01  3.4461384E+01
 3.8808575E+01  3.4289860E+01
 3.8828449E+01  3.4151825E+01
 3.8848324E+01  3.3863132E+01
 3.8868202E+01  3.3835510E+01
 3.8888077E+01  3.3949467E+01
 3.8907955E+01  3.4033527E+01
 3.8927830E+01  3.4079918E+01
 3.8947708E+01  3.3900154E+01
 3.8967583E+01  3.3838516E+01
 3.8987461E+01  3.4070370E+01
 3.9007336E+01  3.4116474E+01
 3.9027214E+01  3.4212605E+01
 3.9047089E+01  3.4284958E+01
 3.9066967E+01  3.4436520E+01
 3.9086842E+01  3.4324257E+01
 3.9106720E+01  3.4376667E+01
 3.9126595E+01  3.4307312E+01
 3.9146469E+01  3.4270351E+01
 3.9166348E+01  3.4324883E+01
 3.9186222E+01  3.4406509E+01
 3.9206100E+01  3.4409447E+01
 3.9225975E+01  3.4270477E+01
 3.9245853E+01  3.4178783E+01
 3.9265728E+01  3.4236443E+01
 3.9285606E+01  3.4260818E+01
 3.9305481E+01  3.4178085E+01
 3.9325359E+01  3.4156120E+01
 3.9345234E+01  3.4309124E+01
 3.9365112E+01  3.4415592E+01
 3.9384987E+01  3.4463696E+01
 3.9404861E+01  3.4682045E+01
 3.9424740E+01  3.4741940E+01
 3.9444614E+01  3.4833675E+01
 3.9464493E+01  3.4831165E+01
 3.9484367E+01  3.4853767E+01
 3.9504246E+01  3.4826725E+01
 3.9524120E+01  3.4683430E+01
 3.9543999E+01  3.4695141E+01
 3.9563873E+01  3.4703461E+01
 3.9583752E+01  3.4797466E+01
 3.9603626E+01  3.4575253E+01
 3.9623505E+01  3.4580494E+01
 3.9643379E+01  3.4677284E+01
 3.9663258E+01  3.4573296E+01
 3.9683132E+01  3.4521767E+01
 3.9703007E+01  3.4811649E+01
 3.9722885E+01  3.4919506E+01
 3.9742760E+01  3.4841312E+01
 3.9762638E+01  3.5034904E+01
 3.9782513E+01  3.5044514E+01
 3.9802391E+01  3.5050171E+01
 3.9822266E+01  3.5310375E+01
 3.9842144E+01  3.5633232E+01
 3.9862019E+01  3.5833706E+01
 3.9881897E+01  3.5863846E+01
 3.9901772E+01  3.6115993E+01
 3.9921650E+01  3.6511948E+01
 3.9941525E+01  3.6669693E+01
 3.9961403E+01  3.6692200E+01
 3.9981277E+01  3.6557911E+01
 4.0001152E+01  3.6329453E+01
 4.0021030E+01  3.6344856E+01
 4.0040905E+01  3.6236851E+01
 4.0060783E+01  3.6143726E+01
 4.0080658E+01  3.5825382E+01
 4.0100536E+01  3.5916332E+01
 4.0120411E+01  3.5920216E+01
 4.0140289E+01  3.5760788E+01
 4.0160164E+01  3.5757179E+01
 4.0180042E+01  3.5854237E+01
 4.0199917E+01  3.5950558E+01
 4.0219795E+01  3.6372257E+01
 4.0239670E+01  3.6828182E+01
 4.0259548E+01  3.7363121E+01
 4.0279423E+01  3.7888382E+01
 4.0299297E+01  3.8853672E+01
 4.0319176E+01  4.0012775E+01
 4.0339050E+01  4.0780914E+01
 4.0358929E+01  4.0560452E+01
 4.0378803E+01  3.9725494E+01
 4.0398682E+01  3.8229603E+01
 4.0418556E+01  3.6725266E+01
 4.0438435E+01  3.6197140E+01
 4.0458309E+01  3.5963692E+01
 4.0478188E+01  3.5924191E+01
 4.0498062E+01  3.5878059E+01
 4.0517941E+01  3.5869286E+01
 4.0537815E+01  3.5790550E+01
 4.0557693E+01  3.6048367E+01
 4.0577568E+01  3.6186962E+01
 4.0597443E+01  3.6158180E+01
 4.0617321E+01  3.6222366E+01
 4.0637196E+01  3.6533211E+01
 4.0657074E+01  3.6759029E+01
 4.0676949E+01  3.6837463E+01
 4.0696827E+01  3.6973286E+01
 4.0716702E+01  3.7060856E+01
 4.0736580E+01  3.7221378E+01
 4.0756454E+01  3.7326717E+01
 4.0776333E+01  3.7332996E+01
 4.0796207E+01  3.7375439E+01
 4.0816086E+01  3.7361126E+01
 4.0835960E+01  3.7314125E+01
 4.0855835E+01  3.6993134E+01
 4.0875713E+01  3.6483490E+01
 4.0895588E+01  3.6329712E+01
 4.0915466E+01  3.6357525E+01
 4.0935341E+01  3.6411953E+01
 4.0955219E+01  3.6376984E+01
 4.0975094E+01  3.6285698E+01
 4.0994972E+01  3.6350887E+01
 4.1014847E+01  3.6752457E+01
 4.1034725E+01  3.6850742E+01
 4.1054600E+01  3.6472054E+01
 4.1074478E+01  3.6365536E+01
 4.1094353E+01  3.6182087E+01
 4.1114231E+01  3.6013107E+01
 4.1134106E+01  3.6111725E+01
 4.1153980E+01  3.5898201E+01
 4.1173859E+01  3.5641155E+01
 4.1193733E+01  3.5594810E+01
 4.1213612E+01  3.5850880E+01
 4.1233486E+01  3.5875141E+01
 4.1253365E+01  3.6210629E+01
 4.1273239E+01  3.6116398E+01
 4.1293118E+01  3.5743294E+01
 4.1312992E+01  3.6147362E+01
 4.1332870E+01  3.6285179E+01
 4.1352745E+01  3.6374702E+01
 4.1372623E+01  3.6340057E+01
 4.1392498E+01  3.6616379E+01
 4.1412376E+01  3.6642918E+01
 4.1432251E+01  3.6910496E+01
 4.1452126E+01  3.6834496E+01
 4.1472004E+01  3.6739841E+01
 4.1491879E+01  3.6997753E+01
 4.1511757E+01  3.7162964E+01
 4.1531631E+01  3.7211235E+01
 4.1551510E+01  3.7798790E+01
 4.1571384E+01  3.7953098E+01
 4.1591263E+01  3.8560474E+01
 4.1611137E+01  3.9218452E+01
 4.1631016E+01  4.0464314E+01
 4.1650890E+01  4.2414986E+01
 4.1670769E+01  4.4389652E+01
 4.1690643E+01  4.6517948E+01
 4.1710522E+01  4.8035133E+01
 4.1730396E+01  4.9886700E+01
 4.1750271E+01  5.0167603E+01
 4.1770149E+01  5.0062702E+01
 4.1790024E+01  4.9461548E+01
 4.1809902E+01  4.8352055E+01
 4.1829777E+01  4.7769581E+01
 4.1849655E+01  4.6765514E+01
 4.1869530E+01  4.5603714E+01
 4.1889408E+01  4.4237423E+01
 4.1909283E+01  4.2478004E+01
 4.1929161E+01  4.1911800E+01
 4.1949036E+01  4.0865124E+01
 4.1968914E+01  4.0226547E+01
 4.1988789E+01  3.9614761E+01
 4.2008667E+01  3.8257576E+01
 4.2028542E+01  3.8030788E+01
 4.2048416E+01  3.7925694E+01
 4.2068295E+01  3.7596245E+01
 4.2088169E+01  3.8044636E+01
 4.2108047E+01  3.7734730E+01
 4.2127922E+01  3.7898907E+01
 4.2147800E+01  3.7904011E+01
 4.2167675E+01  3.8214855E+01
 4.2187553E+01  3.7829967E+01
 4.2207428E+01  3.7761833E+01
 4.2227306E+01  3.7872852E+01
 4.2247181E+01  3.7904037E+01
 4.2267059E+01  3.8129650E+01
 4.2286934E+01  3.7902409E+01
 4.2306808E+01  3.7906887E+01
 4.2326687E+01  3.7674541E+01
 4.2346561E+01  3.7673454E+01
 4.2366440E+01  3.7367153E+01
 4.2386314E+01  3.8295113E+01
 4.2406193E+01  3.8179234E+01
 4.2426067E+01  3.8310009E+01
 4.2445946E+01  3.8726028E+01
 4.2465820E+01  3.8818684E+01
 4.2485699E+01  3.9731949E+01
 4.2505573E+01  4.0142921E+01
 4.2525452E+01  3.9805740E+01
 4.2545326E+01  4.0052422E+01
 4.2565205E+01  4.0703388E+01
 4.2585079E+01  4.1647774E+01
 4.2604954E+01  4.2430923E+01
 4.2624832E+01  4.3727169E+01
 4.2644707E+01  4.3521114E+01
 4.2664585E+01  4.1426144E+01
 4.2684460E+01  4.0168945E+01
 4.2704338E+01  4.0837582E+01
 4.2724213E+01  3.9716900E+01
 4.2744091E+01  3.9904842E+01
 4.2763966E+01  3.9361618E+01
 4.2783844E+01  3.9113789E+01
 4.2803719E+01  3.9498016E+01
 4.2823597E+01  3.9148151E+01
 4.2843472E+01  3.9057076E+01
 4.2863350E+01  3.8948734E+01
 4.2883224E+01  3.9451324E+01
 4.2903099E+01  3.8863071E+01
 4.2922977E+01  3.8992580E+01
 4.2942852E+01  3.9727268E+01
 4.2962730E+01  3.9758877E+01
 4.2982605E+01  3.9013485E+01
 4.3002483E+01  3.9335297E+01
 4.3022358E+01  3.9730686E+01
 4.3042236E+01  3.8718132E+01
 4.3062111E+01  3.9117752E+01
 4.3081989E+01  3.7844727E+01
 4.3101864E+01  3.6084404E+01
 4.3121742E+01  3.5593594E+01
 4.3141617E+01  3.3216797E+01
 4.3161495E+01  3.3889896E+01
 4.3181370E+01  3.3572529E+01
 4.3201244E+01  3.0487083E+01
 4.3221123E+01  2.9550503E+01
 4.3240997E+01  2.9494884E+01
 4.3260876E+01  2.9599642E+01
 4.3280750E+01  2.4758030E+01
 4.3300629E+01  2.2839710E+01
 4.3320503E+01  1.8110317E+01
 4.3340382E+01  6.7579842E+00
 4.3360256E+01  0.0000000E+00
 4.3380135E+01  0.0000000E+00
 4.3400009E+01  0.0000000E+00
 4.3419888E+01  0.0000000E+00
 4.3439762E+01  0.0000000E+00
 4.3459641E+01  0.0000000E+00
 4.3479515E+01  0.0000000E+00
 4.3499390E+01  0.0000000E+00
