V:\SAXS\2014_03\MARCCD\Mar14_04851.mccd: Q-Space Scan
Q (Inverse Nanometres)

       2189
 9.9381749E-03  0.0000000E+00
 2.9814525E-02  0.0000000E+00
 4.9690872E-02  0.0000000E+00
 6.9567226E-02  0.0000000E+00
 8.9443572E-02  0.0000000E+00
 1.0931993E-01  0.0000000E+00
 1.2919627E-01  0.0000000E+00
 1.4907262E-01  0.0000000E+00
 1.6894898E-01  0.0000000E+00
 1.8882532E-01  0.0000000E+00
 2.0870167E-01  0.0000000E+00
 2.2857802E-01  0.0000000E+00
 2.4845438E-01  0.0000000E+00
 2.6833072E-01  0.0000000E+00
 2.8820708E-01  0.0000000E+00
 3.0808342E-01  0.0000000E+00
 3.2795978E-01  0.0000000E+00
 3.4783611E-01  0.0000000E+00
 3.6771247E-01  0.0000000E+00
 3.8758883E-01  0.0000000E+00
 4.0746516E-01  0.0000000E+00
 4.2734152E-01  0.0000000E+00
 4.4721788E-01  0.0000000E+00
 4.6709421E-01  0.0000000E+00
 4.8697057E-01  0.0000000E+00
 5.0684690E-01  0.0000000E+00
 5.2672327E-01  0.0000000E+00
 5.4659963E-01  0.0000000E+00
 5.6647599E-01  0.0000000E+00
 5.8635229E-01  0.0000000E+00
 6.0622865E-01  0.0000000E+00
 6.2610501E-01  0.0000000E+00
 6.4598137E-01  0.0000000E+00
 6.6585773E-01  0.0000000E+00
 6.8573409E-01  0.0000000E+00
 7.0561039E-01  0.0000000E+00
 7.2548676E-01  0.0000000E+00
 7.4536312E-01  0.0000000E+00
 7.6523948E-01  0.0000000E+00
 7.8511584E-01  0.0000000E+00
 8.0499214E-01  0.0000000E+00
 8.2486850E-01  0.0000000E+00
 8.4474486E-01  0.0000000E+00
 8.6462122E-01  0.0000000E+00
 8.8449758E-01  0.0000000E+00
 9.0437388E-01  0.0000000E+00
 9.2425025E-01  0.0000000E+00
 9.4412661E-01  0.0000000E+00
 9.6400297E-01  0.0000000E+00
 9.8387933E-01  0.0000000E+00
 1.0037557E+00  0.0000000E+00
 1.0236320E+00  0.0000000E+00
 1.0435084E+00  0.0000000E+00
 1.0633847E+00  0.0000000E+00
 1.0832610E+00  0.0000000E+00
 1.1031374E+00  0.0000000E+00
 1.1230137E+00  0.0000000E+00
 1.1428901E+00  0.0000000E+00
 1.1627665E+00  0.0000000E+00
 1.1826428E+00  0.0000000E+00
 1.2025192E+00  0.0000000E+00
 1.2223955E+00  0.0000000E+00
 1.2422719E+00  0.0000000E+00
 1.2621483E+00  0.0000000E+00
 1.2820245E+00  0.0000000E+00
 1.3019009E+00  0.0000000E+00
 1.3217772E+00  0.0000000E+00
 1.3416536E+00  0.0000000E+00
 1.3615299E+00  0.0000000E+00
 1.3814063E+00  0.0000000E+00
 1.4012827E+00  0.0000000E+00
 1.4211590E+00  0.0000000E+00
 1.4410354E+00  0.0000000E+00
 1.4609118E+00  0.0000000E+00
 1.4807881E+00  0.0000000E+00
 1.5006644E+00  0.0000000E+00
 1.5205407E+00  0.0000000E+00
 1.5404171E+00  0.0000000E+00
 1.5602934E+00  0.0000000E+00
 1.5801698E+00  0.0000000E+00
 1.6000462E+00  0.0000000E+00
 1.6199225E+00  0.0000000E+00
 1.6397989E+00  0.0000000E+00
 1.6596752E+00  0.0000000E+00
 1.6795516E+00  0.0000000E+00
 1.6994278E+00  0.0000000E+00
 1.7193042E+00  0.0000000E+00
 1.7391806E+00  0.0000000E+00
 1.7590569E+00  0.0000000E+00
 1.7789333E+00  0.0000000E+00
 1.7988096E+00  0.0000000E+00
 1.8186860E+00  0.0000000E+00
 1.8385624E+00  0.0000000E+00
 1.8584387E+00  0.0000000E+00
 1.8783151E+00  0.0000000E+00
 1.8981915E+00  0.0000000E+00
 1.9180677E+00  0.0000000E+00
 1.9379441E+00  0.0000000E+00
 1.9578204E+00  0.0000000E+00
 1.9776968E+00  0.0000000E+00
 1.9975731E+00  0.0000000E+00
 2.0174494E+00  1.7780823E+02
 2.0373259E+00  1.6993143E+02
 2.0572021E+00  1.5866937E+02
 2.0770786E+00  1.6091084E+02
 2.0969548E+00  1.6000107E+02
 2.1168313E+00  1.5894702E+02
 2.1367075E+00  1.5974190E+02
 2.1565840E+00  1.6084833E+02
 2.1764603E+00  1.5982074E+02
 2.1963367E+00  1.5807874E+02
 2.2162130E+00  1.5828804E+02
 2.2360892E+00  1.5872568E+02
 2.2559657E+00  1.5892595E+02
 2.2758420E+00  1.5930606E+02
 2.2957184E+00  1.5967557E+02
 2.3155947E+00  1.5977119E+02
 2.3354712E+00  1.5951189E+02
 2.3553474E+00  1.5963577E+02
 2.3752239E+00  1.5982683E+02
 2.3951001E+00  1.5998709E+02
 2.4149766E+00  1.6059348E+02
 2.4348528E+00  1.6086644E+02
 2.4547291E+00  1.6148433E+02
 2.4746056E+00  1.6205640E+02
 2.4944818E+00  1.6215317E+02
 2.5143583E+00  1.6245883E+02
 2.5342345E+00  1.6254013E+02
 2.5541110E+00  1.6248456E+02
 2.5739872E+00  1.6243752E+02
 2.5938637E+00  1.6269846E+02
 2.6137400E+00  1.6299197E+02
 2.6336164E+00  1.6309628E+02
 2.6534927E+00  1.6331108E+02
 2.6733689E+00  1.6371521E+02
 2.6932454E+00  1.6395663E+02
 2.7131217E+00  1.6419795E+02
 2.7329981E+00  1.6425749E+02
 2.7528744E+00  1.6442400E+02
 2.7727509E+00  1.6492522E+02
 2.7926271E+00  1.6544051E+02
 2.8125036E+00  1.6546254E+02
 2.8323798E+00  1.6521231E+02
 2.8522563E+00  1.6505936E+02
 2.8721325E+00  1.6491145E+02
 2.8920088E+00  1.6502164E+02
 2.9118853E+00  1.6574820E+02
 2.9317615E+00  1.6576387E+02
 2.9516380E+00  1.6542542E+02
 2.9715142E+00  1.6606635E+02
 2.9913907E+00  1.6682082E+02
 3.0112669E+00  1.6703354E+02
 3.0311434E+00  1.6697131E+02
 3.0510197E+00  1.6681044E+02
 3.0708961E+00  1.6692178E+02
 3.0907724E+00  1.6725546E+02
 3.1106486E+00  1.6749538E+02
 3.1305251E+00  1.6741183E+02
 3.1504014E+00  1.6784653E+02
 3.1702778E+00  1.6835123E+02
 3.1901541E+00  1.6829120E+02
 3.2100306E+00  1.6841389E+02
 3.2299068E+00  1.6820892E+02
 3.2497833E+00  1.6818544E+02
 3.2696595E+00  1.6846994E+02
 3.2895358E+00  1.6847224E+02
 3.3094122E+00  1.6864275E+02
 3.3292885E+00  1.6866075E+02
 3.3491650E+00  1.6867279E+02
 3.3690412E+00  1.6897124E+02
 3.3889177E+00  1.6910616E+02
 3.4087939E+00  1.6876501E+02
 3.4286704E+00  1.6884377E+02
 3.4485466E+00  1.6915013E+02
 3.4684231E+00  1.6966435E+02
 3.4882994E+00  1.7003514E+02
 3.5081756E+00  1.7029854E+02
 3.5280521E+00  1.7031773E+02
 3.5479283E+00  1.7028621E+02
 3.5678048E+00  1.7003499E+02
 3.5876811E+00  1.7003325E+02
 3.6075575E+00  1.7007967E+02
 3.6274338E+00  1.7019008E+02
 3.6473103E+00  1.7039774E+02
 3.6671865E+00  1.7051741E+02
 3.6870630E+00  1.7072313E+02
 3.7069392E+00  1.7081879E+02
 3.7268155E+00  1.7078737E+02
 3.7466919E+00  1.7087639E+02
 3.7665682E+00  1.7105125E+02
 3.7864447E+00  1.7119522E+02
 3.8063209E+00  1.7129669E+02
 3.8261974E+00  1.7097610E+02
 3.8460736E+00  1.7091879E+02
 3.8659501E+00  1.7113383E+02
 3.8858263E+00  1.7127539E+02
 3.9057028E+00  1.7116965E+02
 3.9255791E+00  1.7121320E+02
 3.9454553E+00  1.7122411E+02
 3.9653318E+00  1.7133333E+02
 3.9852080E+00  1.7136024E+02
 4.0050845E+00  1.7132335E+02
 4.0249610E+00  1.7126352E+02
 4.0448370E+00  1.7147899E+02
 4.0647135E+00  1.7163484E+02
 4.0845900E+00  1.7158328E+02
 4.1044664E+00  1.7159529E+02
 4.1243424E+00  1.7166266E+02
 4.1442189E+00  1.7160414E+02
 4.1640954E+00  1.7162531E+02
 4.1839714E+00  1.7168269E+02
 4.2038479E+00  1.7169432E+02
 4.2237244E+00  1.7172203E+02
 4.2436008E+00  1.7187560E+02
 4.2634768E+00  1.7193199E+02
 4.2833533E+00  1.7206319E+02
 4.3032298E+00  1.7214122E+02
 4.3231063E+00  1.7217142E+02
 4.3429823E+00  1.7195737E+02
 4.3628588E+00  1.7199457E+02
 4.3827353E+00  1.7253987E+02
 4.4026113E+00  1.7266190E+02
 4.4224877E+00  1.7245807E+02
 4.4423642E+00  1.7245688E+02
 4.4622407E+00  1.7228976E+02
 4.4821167E+00  1.7200519E+02
 4.5019932E+00  1.7197176E+02
 4.5218697E+00  1.7204172E+02
 4.5417461E+00  1.7209712E+02
 4.5616221E+00  1.7208009E+02
 4.5814986E+00  1.7195575E+02
 4.6013751E+00  1.7214426E+02
 4.6212511E+00  1.7245279E+02
 4.6411276E+00  1.7268745E+02
 4.6610041E+00  1.7274489E+02
 4.6808805E+00  1.7259700E+02
 4.7007565E+00  1.7250912E+02
 4.7206330E+00  1.7239128E+02
 4.7405095E+00  1.7235364E+02
 4.7603860E+00  1.7241193E+02
 4.7802620E+00  1.7238795E+02
 4.8001385E+00  1.7231552E+02
 4.8200150E+00  1.7233395E+02
 4.8398910E+00  1.7232455E+02
 4.8597674E+00  1.7230132E+02
 4.8796439E+00  1.7212921E+02
 4.8995204E+00  1.7201595E+02
 4.9193964E+00  1.7200476E+02
 4.9392729E+00  1.7184792E+02
 4.9591494E+00  1.7149199E+02
 4.9790258E+00  1.7178510E+02
 4.9989018E+00  1.7184647E+02
 5.0187783E+00  1.7189133E+02
 5.0386548E+00  1.7191681E+02
 5.0585308E+00  1.7187857E+02
 5.0784073E+00  1.7156651E+02
 5.0982838E+00  1.7141273E+02
 5.1181602E+00  1.7170326E+02
 5.1380363E+00  1.7183713E+02
 5.1579127E+00  1.7169461E+02
 5.1777892E+00  1.7158211E+02
 5.1976652E+00  1.7155113E+02
 5.2175417E+00  1.7164017E+02
 5.2374182E+00  1.7160078E+02
 5.2572947E+00  1.7166132E+02
 5.2771707E+00  1.7162891E+02
 5.2970471E+00  1.7160881E+02
 5.3169236E+00  1.7151785E+02
 5.3368001E+00  1.7167636E+02
 5.3566761E+00  1.7164159E+02
 5.3765526E+00  1.7146011E+02
 5.3964291E+00  1.7128079E+02
 5.4163051E+00  1.7138634E+02
 5.4361815E+00  1.7153575E+02
 5.4560580E+00  1.7153699E+02
 5.4759345E+00  1.7145415E+02
 5.4958105E+00  1.7132486E+02
 5.5156870E+00  1.7113541E+02
 5.5355635E+00  1.7097450E+02
 5.5554399E+00  1.7097690E+02
 5.5753160E+00  1.7125732E+02
 5.5951924E+00  1.7152693E+02
 5.6150689E+00  1.7147408E+02
 5.6349449E+00  1.7134920E+02
 5.6548214E+00  1.7117197E+02
 5.6746979E+00  1.7086179E+02
 5.6945744E+00  1.7057332E+02
 5.7144504E+00  1.7042766E+02
 5.7343268E+00  1.7038512E+02
 5.7542033E+00  1.7030185E+02
 5.7740798E+00  1.7050046E+02
 5.7939558E+00  1.7056517E+02
 5.8138323E+00  1.7062158E+02
 5.8337088E+00  1.7066974E+02
 5.8535848E+00  1.7061601E+02
 5.8734612E+00  1.7070508E+02
 5.8933377E+00  1.7090372E+02
 5.9132142E+00  1.7094946E+02
 5.9330902E+00  1.7077919E+02
 5.9529667E+00  1.7063199E+02
 5.9728432E+00  1.7047954E+02
 5.9927197E+00  1.7020621E+02
 6.0125957E+00  1.6993001E+02
 6.0324721E+00  1.6997324E+02
 6.0523486E+00  1.6999483E+02
 6.0722246E+00  1.7010089E+02
 6.0921011E+00  1.7021329E+02
 6.1119776E+00  1.7020966E+02
 6.1318541E+00  1.7004996E+02
 6.1517301E+00  1.7020602E+02
 6.1716065E+00  1.7044276E+02
 6.1914830E+00  1.7048909E+02
 6.2113595E+00  1.7032776E+02
 6.2312355E+00  1.7031352E+02
 6.2511120E+00  1.7062003E+02
 6.2709885E+00  1.7150853E+02
 6.2908645E+00  1.7303783E+02
 6.3107409E+00  1.7582202E+02
 6.3306174E+00  1.8087569E+02
 6.3504939E+00  1.8726874E+02
 6.3703699E+00  1.9245531E+02
 6.3902464E+00  1.9375374E+02
 6.4101229E+00  1.9043724E+02
 6.4299994E+00  1.8423621E+02
 6.4498754E+00  1.7776486E+02
 6.4697518E+00  1.7341592E+02
 6.4896283E+00  1.7115581E+02
 6.5095043E+00  1.6999724E+02
 6.5293808E+00  1.6930507E+02
 6.5492573E+00  1.6879587E+02
 6.5691338E+00  1.6853735E+02
 6.5890098E+00  1.6844539E+02
 6.6088862E+00  1.6833043E+02
 6.6287627E+00  1.6793526E+02
 6.6486392E+00  1.6779164E+02
 6.6685152E+00  1.6783835E+02
 6.6883917E+00  1.6773015E+02
 6.7082682E+00  1.6749451E+02
 6.7281442E+00  1.6734544E+02
 6.7480206E+00  1.6742725E+02
 6.7678971E+00  1.6745360E+02
 6.7877736E+00  1.6716814E+02
 6.8076496E+00  1.6683263E+02
 6.8275261E+00  1.6679807E+02
 6.8474026E+00  1.6677486E+02
 6.8672791E+00  1.6663161E+02
 6.8871551E+00  1.6653497E+02
 6.9070315E+00  1.6672586E+02
 6.9269080E+00  1.6674414E+02
 6.9467840E+00  1.6669792E+02
 6.9666605E+00  1.6671480E+02
 6.9865370E+00  1.6681381E+02
 7.0064135E+00  1.6676814E+02
 7.0262895E+00  1.6653102E+02
 7.0461659E+00  1.6634158E+02
 7.0660424E+00  1.6609375E+02
 7.0859189E+00  1.6578593E+02
 7.1057949E+00  1.6558867E+02
 7.1256714E+00  1.6550636E+02
 7.1455479E+00  1.6532568E+02
 7.1654239E+00  1.6498921E+02
 7.1853004E+00  1.6486244E+02
 7.2051768E+00  1.6490399E+02
 7.2250533E+00  1.6489746E+02
 7.2449293E+00  1.6467570E+02
 7.2648058E+00  1.6447853E+02
 7.2846823E+00  1.6439984E+02
 7.3045588E+00  1.6450230E+02
 7.3244348E+00  1.6442747E+02
 7.3443112E+00  1.6416147E+02
 7.3641877E+00  1.6396553E+02
 7.3840637E+00  1.6384566E+02
 7.4039402E+00  1.6369267E+02
 7.4238167E+00  1.6344746E+02
 7.4436932E+00  1.6338538E+02
 7.4635692E+00  1.6322084E+02
 7.4834456E+00  1.6287164E+02
 7.5033221E+00  1.6255272E+02
 7.5231986E+00  1.6256264E+02
 7.5430746E+00  1.6249162E+02
 7.5629511E+00  1.6245027E+02
 7.5828276E+00  1.6230396E+02
 7.6027036E+00  1.6206317E+02
 7.6225801E+00  1.6199907E+02
 7.6424565E+00  1.6197714E+02
 7.6623330E+00  1.6165691E+02
 7.6822090E+00  1.6129591E+02
 7.7020855E+00  1.6112775E+02
 7.7219620E+00  1.6100481E+02
 7.7418380E+00  1.6085532E+02
 7.7617145E+00  1.6060599E+02
 7.7815909E+00  1.6040852E+02
 7.8014674E+00  1.6006497E+02
 7.8213434E+00  1.5992850E+02
 7.8412199E+00  1.5998581E+02
 7.8610964E+00  1.5992883E+02
 7.8809729E+00  1.5966684E+02
 7.9008489E+00  1.5951550E+02
 7.9207253E+00  1.5934314E+02
 7.9406018E+00  1.5912642E+02
 7.9604778E+00  1.5893718E+02
 7.9803543E+00  1.5886967E+02
 8.0002308E+00  1.5891891E+02
 8.0201073E+00  1.5918068E+02
 8.0399837E+00  1.5953152E+02
 8.0598602E+00  1.6021469E+02
 8.0797358E+00  1.6089891E+02
 8.0996122E+00  1.6112280E+02
 8.1194887E+00  1.6099210E+02
 8.1393652E+00  1.6059618E+02
 8.1592417E+00  1.5976826E+02
 8.1791182E+00  1.5909428E+02
 8.1989946E+00  1.5831650E+02
 8.2188702E+00  1.5805212E+02
 8.2387466E+00  1.5798764E+02
 8.2586231E+00  1.5786781E+02
 8.2784996E+00  1.5797922E+02
 8.2983761E+00  1.5836255E+02
 8.3182526E+00  1.5929750E+02
 8.3381290E+00  1.6108687E+02
 8.3580055E+00  1.6393015E+02
 8.3778811E+00  1.6818045E+02
 8.3977575E+00  1.7326010E+02
 8.4176340E+00  1.7800381E+02
 8.4375105E+00  1.8076193E+02
 8.4573870E+00  1.7989911E+02
 8.4772635E+00  1.7604341E+02
 8.4971399E+00  1.7064165E+02
 8.5170155E+00  1.6539218E+02
 8.5368919E+00  1.6126622E+02
 8.5567684E+00  1.5837550E+02
 8.5766449E+00  1.5682556E+02
 8.5965214E+00  1.5608649E+02
 8.6163979E+00  1.5550922E+02
 8.6362743E+00  1.5501044E+02
 8.6561499E+00  1.5472731E+02
 8.6760263E+00  1.5453444E+02
 8.6959028E+00  1.5432953E+02
 8.7157793E+00  1.5390601E+02
 8.7356558E+00  1.5357214E+02
 8.7555323E+00  1.5330856E+02
 8.7754087E+00  1.5311047E+02
 8.7952852E+00  1.5293301E+02
 8.8151608E+00  1.5294353E+02
 8.8350372E+00  1.5258540E+02
 8.8549137E+00  1.5221777E+02
 8.8747902E+00  1.5209363E+02
 8.8946667E+00  1.5195038E+02
 8.9145432E+00  1.5191103E+02
 8.9344196E+00  1.5217464E+02
 8.9542952E+00  1.5240239E+02
 8.9741716E+00  1.5275508E+02
 8.9940481E+00  1.5365050E+02
 9.0139246E+00  1.5459798E+02
 9.0338011E+00  1.5493872E+02
 9.0536776E+00  1.5445503E+02
 9.0735540E+00  1.5340094E+02
 9.0934296E+00  1.5250531E+02
 9.1133060E+00  1.5175764E+02
 9.1331825E+00  1.5106390E+02
 9.1530590E+00  1.5056993E+02
 9.1729355E+00  1.5015450E+02
 9.1928120E+00  1.4979518E+02
 9.2126884E+00  1.4971576E+02
 9.2325640E+00  1.4965201E+02
 9.2524405E+00  1.4964532E+02
 9.2723169E+00  1.4951202E+02
 9.2921934E+00  1.4922983E+02
 9.3120699E+00  1.4892316E+02
 9.3319464E+00  1.4879413E+02
 9.3518229E+00  1.4862404E+02
 9.3716993E+00  1.4844676E+02
 9.3915749E+00  1.4817532E+02
 9.4114513E+00  1.4792044E+02
 9.4313278E+00  1.4770676E+02
 9.4512043E+00  1.4772073E+02
 9.4710808E+00  1.4785750E+02
 9.4909573E+00  1.4766930E+02
 9.5108337E+00  1.4749518E+02
 9.5307093E+00  1.4754237E+02
 9.5505857E+00  1.4758031E+02
 9.5704622E+00  1.4726488E+02
 9.5903387E+00  1.4694159E+02
 9.6102152E+00  1.4684787E+02
 9.6300917E+00  1.4682201E+02
 9.6499681E+00  1.4652611E+02
 9.6698437E+00  1.4628186E+02
 9.6897202E+00  1.4620775E+02
 9.7095966E+00  1.4606323E+02
 9.7294731E+00  1.4607182E+02
 9.7493496E+00  1.4600104E+02
 9.7692261E+00  1.4590123E+02
 9.7891026E+00  1.4570941E+02
 9.8089790E+00  1.4556918E+02
 9.8288546E+00  1.4556627E+02
 9.8487310E+00  1.4559422E+02
 9.8686075E+00  1.4568266E+02
 9.8884840E+00  1.4593675E+02
 9.9083605E+00  1.4620683E+02
 9.9282370E+00  1.4605405E+02
 9.9481134E+00  1.4556090E+02
 9.9679890E+00  1.4516997E+02
 9.9878654E+00  1.4490868E+02
 1.0007742E+01  1.4440619E+02
 1.0027618E+01  1.4421269E+02
 1.0047495E+01  1.4430139E+02
 1.0067371E+01  1.4439818E+02
 1.0087248E+01  1.4456416E+02
 1.0107123E+01  1.4455928E+02
 1.0127000E+01  1.4456787E+02
 1.0146876E+01  1.4496594E+02
 1.0166753E+01  1.4560690E+02
 1.0186629E+01  1.4664392E+02
 1.0206506E+01  1.4818056E+02
 1.0226382E+01  1.4986902E+02
 1.0246259E+01  1.5126523E+02
 1.0266134E+01  1.5208267E+02
 1.0286011E+01  1.5292323E+02
 1.0305887E+01  1.5520721E+02
 1.0325764E+01  1.6100110E+02
 1.0345640E+01  1.6994482E+02
 1.0365517E+01  1.7772853E+02
 1.0385393E+01  1.7914627E+02
 1.0405269E+01  1.7289101E+02
 1.0425145E+01  1.6287483E+02
 1.0445022E+01  1.5396967E+02
 1.0464898E+01  1.4808443E+02
 1.0484775E+01  1.4477069E+02
 1.0504651E+01  1.4318552E+02
 1.0524528E+01  1.4237404E+02
 1.0544403E+01  1.4179994E+02
 1.0564280E+01  1.4124336E+02
 1.0584156E+01  1.4091299E+02
 1.0604033E+01  1.4073532E+02
 1.0623909E+01  1.4052328E+02
 1.0643785E+01  1.4035904E+02
 1.0663662E+01  1.4003784E+02
 1.0683538E+01  1.3990720E+02
 1.0703414E+01  1.3967204E+02
 1.0723290E+01  1.3958163E+02
 1.0743167E+01  1.3957947E+02
 1.0763043E+01  1.3956548E+02
 1.0782920E+01  1.3952727E+02
 1.0802796E+01  1.3960825E+02
 1.0822673E+01  1.3933089E+02
 1.0842548E+01  1.3906989E+02
 1.0862425E+01  1.3895633E+02
 1.0882301E+01  1.3888022E+02
 1.0902178E+01  1.3889268E+02
 1.0922054E+01  1.3925430E+02
 1.0941931E+01  1.3979518E+02
 1.0961807E+01  1.4062360E+02
 1.0981683E+01  1.4173317E+02
 1.1001559E+01  1.4355153E+02
 1.1021436E+01  1.4583069E+02
 1.1041312E+01  1.4794557E+02
 1.1061189E+01  1.4883740E+02
 1.1081065E+01  1.4782306E+02
 1.1100942E+01  1.4548489E+02
 1.1120818E+01  1.4294923E+02
 1.1140694E+01  1.4153436E+02
 1.1160570E+01  1.4192599E+02
 1.1180447E+01  1.4385585E+02
 1.1200323E+01  1.4621576E+02
 1.1220200E+01  1.4744868E+02
 1.1240076E+01  1.4658434E+02
 1.1259953E+01  1.4406313E+02
 1.1279828E+01  1.4112807E+02
 1.1299705E+01  1.3887177E+02
 1.1319581E+01  1.3747028E+02
 1.1339458E+01  1.3668591E+02
 1.1359334E+01  1.3615965E+02
 1.1379210E+01  1.3576659E+02
 1.1399087E+01  1.3543787E+02
 1.1418962E+01  1.3516309E+02
 1.1438839E+01  1.3500389E+02
 1.1458715E+01  1.3492624E+02
 1.1478592E+01  1.3478294E+02
 1.1498468E+01  1.3457430E+02
 1.1518345E+01  1.3428200E+02
 1.1538221E+01  1.3405003E+02
 1.1558097E+01  1.3389996E+02
 1.1577973E+01  1.3376677E+02
 1.1597850E+01  1.3351025E+02
 1.1617726E+01  1.3322859E+02
 1.1637603E+01  1.3321657E+02
 1.1657479E+01  1.3313942E+02
 1.1677356E+01  1.3293358E+02
 1.1697232E+01  1.3272684E+02
 1.1717108E+01  1.3268283E+02
 1.1736984E+01  1.3253583E+02
 1.1756861E+01  1.3229648E+02
 1.1776737E+01  1.3228825E+02
 1.1796614E+01  1.3257970E+02
 1.1816490E+01  1.3258176E+02
 1.1836367E+01  1.3258104E+02
 1.1856242E+01  1.3271187E+02
 1.1876119E+01  1.3291975E+02
 1.1895995E+01  1.3310876E+02
 1.1915872E+01  1.3318875E+02
 1.1935748E+01  1.3328264E+02
 1.1955625E+01  1.3309732E+02
 1.1975501E+01  1.3289435E+02
 1.1995377E+01  1.3258347E+02
 1.2015253E+01  1.3254097E+02
 1.2035130E+01  1.3270732E+02
 1.2055006E+01  1.3293562E+02
 1.2074883E+01  1.3332881E+02
 1.2094759E+01  1.3391165E+02
 1.2114635E+01  1.3424461E+02
 1.2134512E+01  1.3410867E+02
 1.2154387E+01  1.3362985E+02
 1.2174264E+01  1.3320419E+02
 1.2194140E+01  1.3293327E+02
 1.2214017E+01  1.3276585E+02
 1.2233893E+01  1.3267781E+02
 1.2253770E+01  1.3265910E+02
 1.2273646E+01  1.3279568E+02
 1.2293522E+01  1.3311807E+02
 1.2313398E+01  1.3361984E+02
 1.2333275E+01  1.3429659E+02
 1.2353151E+01  1.3498706E+02
 1.2373028E+01  1.3596873E+02
 1.2392904E+01  1.3719455E+02
 1.2412781E+01  1.3855783E+02
 1.2432656E+01  1.3961848E+02
 1.2452533E+01  1.4013487E+02
 1.2472409E+01  1.4057649E+02
 1.2492286E+01  1.4106947E+02
 1.2512162E+01  1.4186555E+02
 1.2532039E+01  1.4315796E+02
 1.2551915E+01  1.4449852E+02
 1.2571792E+01  1.4504173E+02
 1.2591667E+01  1.4431349E+02
 1.2611544E+01  1.4277730E+02
 1.2631420E+01  1.4078313E+02
 1.2651297E+01  1.3849271E+02
 1.2671173E+01  1.3650668E+02
 1.2691050E+01  1.3483322E+02
 1.2710926E+01  1.3338365E+02
 1.2730802E+01  1.3238911E+02
 1.2750678E+01  1.3172978E+02
 1.2770555E+01  1.3108217E+02
 1.2790431E+01  1.3043196E+02
 1.2810308E+01  1.2971208E+02
 1.2830184E+01  1.2893555E+02
 1.2850060E+01  1.2833217E+02
 1.2869936E+01  1.2778946E+02
 1.2889812E+01  1.2743383E+02
 1.2909689E+01  1.2745285E+02
 1.2929565E+01  1.2769833E+02
 1.2949442E+01  1.2815424E+02
 1.2969318E+01  1.2873160E+02
 1.2989195E+01  1.2924936E+02
 1.3009071E+01  1.2970735E+02
 1.3028947E+01  1.2988669E+02
 1.3048823E+01  1.2988022E+02
 1.3068700E+01  1.2961877E+02
 1.3088576E+01  1.2922321E+02
 1.3108453E+01  1.2876859E+02
 1.3128329E+01  1.2837215E+02
 1.3148206E+01  1.2815131E+02
 1.3168081E+01  1.2829568E+02
 1.3187958E+01  1.2888007E+02
 1.3207834E+01  1.2975748E+02
 1.3227711E+01  1.3059810E+02
 1.3247587E+01  1.3070345E+02
 1.3267464E+01  1.2991951E+02
 1.3287340E+01  1.2864346E+02
 1.3307216E+01  1.2730984E+02
 1.3327092E+01  1.2616608E+02
 1.3346969E+01  1.2517294E+02
 1.3366845E+01  1.2465112E+02
 1.3386722E+01  1.2456882E+02
 1.3406598E+01  1.2428432E+02
 1.3426475E+01  1.2385767E+02
 1.3446351E+01  1.2338121E+02
 1.3466227E+01  1.2292252E+02
 1.3486103E+01  1.2252485E+02
 1.3505980E+01  1.2204021E+02
 1.3525856E+01  1.2166075E+02
 1.3545732E+01  1.2153563E+02
 1.3565609E+01  1.2150127E+02
 1.3585485E+01  1.2133263E+02
 1.3605361E+01  1.2125157E+02
 1.3625237E+01  1.2126617E+02
 1.3645114E+01  1.2122258E+02
 1.3664990E+01  1.2116955E+02
 1.3684867E+01  1.2116116E+02
 1.3704743E+01  1.2108556E+02
 1.3724620E+01  1.2101045E+02
 1.3744495E+01  1.2096716E+02
 1.3764372E+01  1.2089771E+02
 1.3784248E+01  1.2066772E+02
 1.3804125E+01  1.2045660E+02
 1.3824001E+01  1.2028764E+02
 1.3843878E+01  1.2016828E+02
 1.3863754E+01  1.2012388E+02
 1.3883631E+01  1.2012376E+02
 1.3903506E+01  1.2000618E+02
 1.3923383E+01  1.2000109E+02
 1.3943259E+01  1.2023092E+02
 1.3963136E+01  1.2049444E+02
 1.3983012E+01  1.2052913E+02
 1.4002889E+01  1.2030741E+02
 1.4022765E+01  1.2011208E+02
 1.4042641E+01  1.2003856E+02
 1.4062517E+01  1.1999655E+02
 1.4082394E+01  1.2001730E+02
 1.4102270E+01  1.1995350E+02
 1.4122147E+01  1.1977845E+02
 1.4142023E+01  1.1946302E+02
 1.4161900E+01  1.1914896E+02
 1.4181775E+01  1.1902866E+02
 1.4201652E+01  1.1922903E+02
 1.4221528E+01  1.1969884E+02
 1.4241405E+01  1.2001275E+02
 1.4261281E+01  1.2017754E+02
 1.4281157E+01  1.1996113E+02
 1.4301034E+01  1.1959209E+02
 1.4320910E+01  1.1937518E+02
 1.4340786E+01  1.1960206E+02
 1.4360662E+01  1.2015028E+02
 1.4380539E+01  1.2065801E+02
 1.4400415E+01  1.2094270E+02
 1.4420292E+01  1.2087923E+02
 1.4440168E+01  1.2051542E+02
 1.4460045E+01  1.2012463E+02
 1.4479920E+01  1.1995227E+02
 1.4499797E+01  1.2019782E+02
 1.4519673E+01  1.2085077E+02
 1.4539550E+01  1.2198172E+02
 1.4559426E+01  1.2317642E+02
 1.4579303E+01  1.2383055E+02
 1.4599179E+01  1.2358067E+02
 1.4619055E+01  1.2265553E+02
 1.4638931E+01  1.2154198E+02
 1.4658808E+01  1.2041647E+02
 1.4678684E+01  1.1918485E+02
 1.4698561E+01  1.1831427E+02
 1.4718437E+01  1.1783486E+02
 1.4738314E+01  1.1733214E+02
 1.4758189E+01  1.1697604E+02
 1.4778066E+01  1.1678256E+02
 1.4797942E+01  1.1658918E+02
 1.4817819E+01  1.1646636E+02
 1.4837695E+01  1.1623620E+02
 1.4857572E+01  1.1613899E+02
 1.4877448E+01  1.1608463E+02
 1.4897325E+01  1.1597308E+02
 1.4917200E+01  1.1585847E+02
 1.4937077E+01  1.1583913E+02
 1.4956953E+01  1.1584692E+02
 1.4976830E+01  1.1595144E+02
 1.4996706E+01  1.1612270E+02
 1.5016582E+01  1.1632248E+02
 1.5036459E+01  1.1688650E+02
 1.5056334E+01  1.1810093E+02
 1.5076211E+01  1.2017714E+02
 1.5096087E+01  1.2255943E+02
 1.5115964E+01  1.2431937E+02
 1.5135840E+01  1.2463773E+02
 1.5155717E+01  1.2371698E+02
 1.5175593E+01  1.2187342E+02
 1.5195469E+01  1.1985955E+02
 1.5215345E+01  1.1824112E+02
 1.5235222E+01  1.1724835E+02
 1.5255098E+01  1.1656273E+02
 1.5274975E+01  1.1618485E+02
 1.5294851E+01  1.1618013E+02
 1.5314728E+01  1.1658868E+02
 1.5334604E+01  1.1736029E+02
 1.5354480E+01  1.1849561E+02
 1.5374356E+01  1.1944781E+02
 1.5394233E+01  1.1943383E+02
 1.5414109E+01  1.1850549E+02
 1.5433986E+01  1.1727042E+02
 1.5453862E+01  1.1624934E+02
 1.5473739E+01  1.1563937E+02
 1.5493614E+01  1.1523065E+02
 1.5513491E+01  1.1482823E+02
 1.5533367E+01  1.1461013E+02
 1.5553244E+01  1.1462207E+02
 1.5573120E+01  1.1473285E+02
 1.5592997E+01  1.1466699E+02
 1.5612873E+01  1.1448820E+02
 1.5632749E+01  1.1430920E+02
 1.5652625E+01  1.1433073E+02
 1.5672502E+01  1.1465582E+02
 1.5692378E+01  1.1492578E+02
 1.5712255E+01  1.1538631E+02
 1.5732131E+01  1.1599589E+02
 1.5752007E+01  1.1680058E+02
 1.5771884E+01  1.1805125E+02
 1.5791759E+01  1.1985696E+02
 1.5811636E+01  1.2249250E+02
 1.5831512E+01  1.2604955E+02
 1.5851389E+01  1.3098978E+02
 1.5871265E+01  1.3717351E+02
 1.5891142E+01  1.4342365E+02
 1.5911018E+01  1.4756691E+02
 1.5930894E+01  1.4793213E+02
 1.5950770E+01  1.4478487E+02
 1.5970647E+01  1.4022354E+02
 1.5990523E+01  1.3612433E+02
 1.6010399E+01  1.3291742E+02
 1.6030275E+01  1.3043196E+02
 1.6050152E+01  1.2816646E+02
 1.6070028E+01  1.2650170E+02
 1.6089905E+01  1.2517194E+02
 1.6109781E+01  1.2380662E+02
 1.6129658E+01  1.2240607E+02
 1.6149534E+01  1.2110273E+02
 1.6169411E+01  1.2022831E+02
 1.6189287E+01  1.1961668E+02
 1.6209164E+01  1.1925758E+02
 1.6229040E+01  1.1875705E+02
 1.6248917E+01  1.1795966E+02
 1.6268793E+01  1.1703883E+02
 1.6288668E+01  1.1610977E+02
 1.6308544E+01  1.1520892E+02
 1.6328421E+01  1.1469953E+02
 1.6348297E+01  1.1438090E+02
 1.6368174E+01  1.1375550E+02
 1.6388050E+01  1.1313024E+02
 1.6407927E+01  1.1266589E+02
 1.6427803E+01  1.1249688E+02
 1.6447680E+01  1.1243005E+02
 1.6467556E+01  1.1244527E+02
 1.6487432E+01  1.1225430E+02
 1.6507309E+01  1.1216696E+02
 1.6527185E+01  1.1217542E+02
 1.6547062E+01  1.1226007E+02
 1.6566938E+01  1.1241209E+02
 1.6586813E+01  1.1247849E+02
 1.6606689E+01  1.1261790E+02
 1.6626566E+01  1.1309224E+02
 1.6646442E+01  1.1367759E+02
 1.6666319E+01  1.1416610E+02
 1.6686195E+01  1.1403735E+02
 1.6706072E+01  1.1355675E+02
 1.6725948E+01  1.1342536E+02
 1.6745825E+01  1.1377007E+02
 1.6765701E+01  1.1437534E+02
 1.6785578E+01  1.1495837E+02
 1.6805454E+01  1.1611825E+02
 1.6825331E+01  1.1784146E+02
 1.6845207E+01  1.1937636E+02
 1.6865082E+01  1.2029694E+02
 1.6884958E+01  1.2028249E+02
 1.6904835E+01  1.1925569E+02
 1.6924711E+01  1.1768238E+02
 1.6944588E+01  1.1598142E+02
 1.6964464E+01  1.1453837E+02
 1.6984341E+01  1.1341273E+02
 1.7004217E+01  1.1270153E+02
 1.7024094E+01  1.1214418E+02
 1.7043970E+01  1.1154935E+02
 1.7063847E+01  1.1166482E+02
 1.7083723E+01  1.1180980E+02
 1.7103600E+01  1.1190304E+02
 1.7123476E+01  1.1182370E+02
 1.7143353E+01  1.1158352E+02
 1.7163227E+01  1.1133783E+02
 1.7183104E+01  1.1109011E+02
 1.7202980E+01  1.1088893E+02
 1.7222857E+01  1.1066807E+02
 1.7242733E+01  1.1069307E+02
 1.7262609E+01  1.1069194E+02
 1.7282486E+01  1.1053835E+02
 1.7302362E+01  1.1065322E+02
 1.7322239E+01  1.1112445E+02
 1.7342115E+01  1.1191312E+02
 1.7361992E+01  1.1314726E+02
 1.7381868E+01  1.1542628E+02
 1.7401745E+01  1.1955390E+02
 1.7421621E+01  1.2535062E+02
 1.7441498E+01  1.3028017E+02
 1.7461372E+01  1.3234850E+02
 1.7481249E+01  1.3119772E+02
 1.7501125E+01  1.2837476E+02
 1.7521002E+01  1.2591205E+02
 1.7540878E+01  1.2586528E+02
 1.7560755E+01  1.2897803E+02
 1.7580631E+01  1.3495753E+02
 1.7600508E+01  1.4069182E+02
 1.7620384E+01  1.4204037E+02
 1.7640261E+01  1.3811967E+02
 1.7660137E+01  1.3122000E+02
 1.7680014E+01  1.2467746E+02
 1.7699890E+01  1.2010273E+02
 1.7719767E+01  1.1788308E+02
 1.7739641E+01  1.1767636E+02
 1.7759518E+01  1.1870600E+02
 1.7779394E+01  1.1987151E+02
 1.7799271E+01  1.2033141E+02
 1.7819147E+01  1.1987496E+02
 1.7839024E+01  1.1831757E+02
 1.7858900E+01  1.1598998E+02
 1.7878777E+01  1.1340136E+02
 1.7898653E+01  1.1127733E+02
 1.7918530E+01  1.0995015E+02
 1.7938406E+01  1.0919100E+02
 1.7958282E+01  1.0893769E+02
 1.7978159E+01  1.0920274E+02
 1.7998035E+01  1.0980753E+02
 1.8017912E+01  1.1022213E+02
 1.8037786E+01  1.1036552E+02
 1.8057663E+01  1.1023454E+02
 1.8077539E+01  1.1020193E+02
 1.8097416E+01  1.1015745E+02
 1.8117292E+01  1.1039399E+02
 1.8137169E+01  1.1124616E+02
 1.8157045E+01  1.1291962E+02
 1.8176922E+01  1.1506562E+02
 1.8196798E+01  1.1746358E+02
 1.8216675E+01  1.1861111E+02
 1.8236551E+01  1.1740487E+02
 1.8256428E+01  1.1431059E+02
 1.8276304E+01  1.1093629E+02
 1.8296181E+01  1.0846142E+02
 1.8316057E+01  1.0706635E+02
 1.8335932E+01  1.0648438E+02
 1.8355808E+01  1.0678143E+02
 1.8375685E+01  1.0804918E+02
 1.8395561E+01  1.1013340E+02
 1.8415438E+01  1.1247066E+02
 1.8435314E+01  1.1367478E+02
 1.8455191E+01  1.1286121E+02
 1.8475067E+01  1.1128709E+02
 1.8494944E+01  1.1020734E+02
 1.8514820E+01  1.0980653E+02
 1.8534697E+01  1.0948711E+02
 1.8554573E+01  1.0893407E+02
 1.8574450E+01  1.0795516E+02
 1.8594326E+01  1.0685708E+02
 1.8614201E+01  1.0598104E+02
 1.8634077E+01  1.0539204E+02
 1.8653954E+01  1.0533051E+02
 1.8673830E+01  1.0537089E+02
 1.8693707E+01  1.0541646E+02
 1.8713583E+01  1.0581972E+02
 1.8733459E+01  1.0623227E+02
 1.8753336E+01  1.0674054E+02
 1.8773212E+01  1.0682686E+02
 1.8793089E+01  1.0690115E+02
 1.8812965E+01  1.0687494E+02
 1.8832842E+01  1.0697182E+02
 1.8852718E+01  1.0726396E+02
 1.8872595E+01  1.0769882E+02
 1.8892471E+01  1.0864872E+02
 1.8912346E+01  1.1030798E+02
 1.8932222E+01  1.1316933E+02
 1.8952099E+01  1.1648978E+02
 1.8971975E+01  1.1878956E+02
 1.8991852E+01  1.1971053E+02
 1.9011728E+01  1.1973383E+02
 1.9031605E+01  1.1916508E+02
 1.9051481E+01  1.1789697E+02
 1.9071358E+01  1.1629105E+02
 1.9091234E+01  1.1474866E+02
 1.9111111E+01  1.1378797E+02
 1.9130987E+01  1.1398498E+02
 1.9150864E+01  1.1497045E+02
 1.9170740E+01  1.1625013E+02
 1.9190615E+01  1.1736632E+02
 1.9210491E+01  1.1800519E+02
 1.9230368E+01  1.1828346E+02
 1.9250244E+01  1.1827457E+02
 1.9270121E+01  1.1836491E+02
 1.9289997E+01  1.1901740E+02
 1.9309874E+01  1.2041304E+02
 1.9329750E+01  1.2183469E+02
 1.9349627E+01  1.2271336E+02
 1.9369503E+01  1.2243550E+02
 1.9389380E+01  1.2066411E+02
 1.9409256E+01  1.1810932E+02
 1.9429132E+01  1.1525523E+02
 1.9449009E+01  1.1264342E+02
 1.9468885E+01  1.1073930E+02
 1.9488760E+01  1.0971396E+02
 1.9508636E+01  1.0932243E+02
 1.9528513E+01  1.0911735E+02
 1.9548389E+01  1.0868653E+02
 1.9568266E+01  1.0801885E+02
 1.9588142E+01  1.0721805E+02
 1.9608019E+01  1.0626714E+02
 1.9627895E+01  1.0549805E+02
 1.9647772E+01  1.0515382E+02
 1.9667648E+01  1.0502388E+02
 1.9687525E+01  1.0539036E+02
 1.9707401E+01  1.0600431E+02
 1.9727278E+01  1.0678189E+02
 1.9747154E+01  1.0771896E+02
 1.9767031E+01  1.0889125E+02
 1.9786905E+01  1.0999366E+02
 1.9806782E+01  1.1070536E+02
 1.9826658E+01  1.1103246E+02
 1.9846535E+01  1.1107996E+02
 1.9866411E+01  1.1084970E+02
 1.9886288E+01  1.1094205E+02
 1.9906164E+01  1.1098036E+02
 1.9926041E+01  1.1099170E+02
 1.9945917E+01  1.1119802E+02
 1.9965794E+01  1.1144069E+02
 1.9985670E+01  1.1200330E+02
 2.0005547E+01  1.1231896E+02
 2.0025423E+01  1.1273233E+02
 2.0045300E+01  1.1380615E+02
 2.0065174E+01  1.1550587E+02
 2.0085051E+01  1.1837536E+02
 2.0104927E+01  1.2196394E+02
 2.0124804E+01  1.2601475E+02
 2.0144680E+01  1.3049803E+02
 2.0164557E+01  1.3676222E+02
 2.0184433E+01  1.4628864E+02
 2.0204309E+01  1.6171758E+02
 2.0224186E+01  1.8768239E+02
 2.0244062E+01  2.2945334E+02
 2.0263939E+01  2.8454089E+02
 2.0283815E+01  3.4372354E+02
 2.0303692E+01  3.9653699E+02
 2.0323568E+01  4.3350116E+02
 2.0343445E+01  4.4718088E+02
 2.0363319E+01  4.2898260E+02
 2.0383196E+01  3.7538718E+02
 2.0403072E+01  3.0043539E+02
 2.0422949E+01  2.3334360E+02
 2.0442825E+01  1.8925217E+02
 2.0462702E+01  1.6474402E+02
 2.0482578E+01  1.5092500E+02
 2.0502455E+01  1.4212076E+02
 2.0522331E+01  1.3640460E+02
 2.0542208E+01  1.3164677E+02
 2.0562084E+01  1.2664063E+02
 2.0581961E+01  1.2188301E+02
 2.0601837E+01  1.1854559E+02
 2.0621714E+01  1.1685129E+02
 2.0641590E+01  1.1706493E+02
 2.0661465E+01  1.2019897E+02
 2.0681341E+01  1.2857870E+02
 2.0701218E+01  1.4388599E+02
 2.0721094E+01  1.6528896E+02
 2.0740971E+01  1.8673790E+02
 2.0760847E+01  2.0078920E+02
 2.0780724E+01  2.0274844E+02
 2.0800600E+01  1.9214368E+02
 2.0820477E+01  1.7085727E+02
 2.0840353E+01  1.4558665E+02
 2.0860229E+01  1.2566219E+02
 2.0880106E+01  1.1377244E+02
 2.0899982E+01  1.0755859E+02
 2.0919859E+01  1.0464727E+02
 2.0939734E+01  1.0358930E+02
 2.0959610E+01  1.0319714E+02
 2.0979486E+01  1.0275280E+02
 2.0999363E+01  1.0225079E+02
 2.1019239E+01  1.0174972E+02
 2.1039116E+01  1.0096234E+02
 2.1058992E+01  1.0016563E+02
 2.1078869E+01  9.9570518E+01
 2.1098745E+01  9.9340134E+01
 2.1118622E+01  9.9483032E+01
 2.1138498E+01  9.9788857E+01
 2.1158375E+01  1.0038538E+02
 2.1178251E+01  1.0118494E+02
 2.1198128E+01  1.0194094E+02
 2.1218004E+01  1.0280429E+02
 2.1237879E+01  1.0353856E+02
 2.1257755E+01  1.0451775E+02
 2.1277632E+01  1.0615856E+02
 2.1297508E+01  1.0831719E+02
 2.1317385E+01  1.1142577E+02
 2.1337261E+01  1.1530959E+02
 2.1357138E+01  1.2031732E+02
 2.1377014E+01  1.2575736E+02
 2.1396891E+01  1.2978281E+02
 2.1416767E+01  1.3047482E+02
 2.1436644E+01  1.2714619E+02
 2.1456520E+01  1.2141151E+02
 2.1476397E+01  1.1576226E+02
 2.1496273E+01  1.1101438E+02
 2.1516150E+01  1.0759942E+02
 2.1536024E+01  1.0598836E+02
 2.1555901E+01  1.0602969E+02
 2.1575777E+01  1.0798147E+02
 2.1595654E+01  1.1150533E+02
 2.1615530E+01  1.1569035E+02
 2.1635406E+01  1.1888480E+02
 2.1655283E+01  1.1911720E+02
 2.1675159E+01  1.1722923E+02
 2.1695036E+01  1.1596150E+02
 2.1714912E+01  1.1699092E+02
 2.1734789E+01  1.2048338E+02
 2.1754665E+01  1.2477023E+02
 2.1774542E+01  1.2800537E+02
 2.1794418E+01  1.2866011E+02
 2.1814293E+01  1.2733988E+02
 2.1834169E+01  1.2594415E+02
 2.1854046E+01  1.2572707E+02
 2.1873922E+01  1.2721928E+02
 2.1893799E+01  1.2964107E+02
 2.1913675E+01  1.3180000E+02
 2.1933552E+01  1.3295761E+02
 2.1953428E+01  1.3304965E+02
 2.1973305E+01  1.3400410E+02
 2.1993181E+01  1.3787062E+02
 2.2013058E+01  1.4633672E+02
 2.2032934E+01  1.5957713E+02
 2.2052811E+01  1.7685344E+02
 2.2072687E+01  1.9680898E+02
 2.2092564E+01  2.1837733E+02
 2.2112438E+01  2.4410806E+02
 2.2132315E+01  2.7951834E+02
 2.2152191E+01  3.2725500E+02
 2.2172068E+01  3.8115903E+02
 2.2191944E+01  4.2662057E+02
 2.2211821E+01  4.4438013E+02
 2.2231697E+01  4.2346201E+02
 2.2251574E+01  3.7144452E+02
 2.2271450E+01  3.0873276E+02
 2.2291327E+01  2.6133954E+02
 2.2311203E+01  2.3906711E+02
 2.2331079E+01  2.3804906E+02
 2.2350956E+01  2.5305087E+02
 2.2370832E+01  2.8420465E+02
 2.2390707E+01  3.2653668E+02
 2.2410583E+01  3.7075980E+02
 2.2430460E+01  4.1032837E+02
 2.2450336E+01  4.4143863E+02
 2.2470213E+01  4.6472580E+02
 2.2490089E+01  4.7456528E+02
 2.2509966E+01  4.5501138E+02
 2.2529842E+01  3.9664780E+02
 2.2549719E+01  3.1723346E+02
 2.2569595E+01  2.5008040E+02
 2.2589472E+01  2.0646814E+02
 2.2609348E+01  1.8061676E+02
 2.2629225E+01  1.6682663E+02
 2.2649101E+01  1.6105663E+02
 2.2668978E+01  1.5965108E+02
 2.2688852E+01  1.5855267E+02
 2.2708729E+01  1.5669388E+02
 2.2728605E+01  1.5610579E+02
 2.2748482E+01  1.5740924E+02
 2.2768358E+01  1.6015123E+02
 2.2788235E+01  1.6444325E+02
 2.2808111E+01  1.7223367E+02
 2.2827988E+01  1.8612758E+02
 2.2847864E+01  2.0705496E+02
 2.2867741E+01  2.2943742E+02
 2.2887617E+01  2.4480576E+02
 2.2907494E+01  2.4820236E+02
 2.2927370E+01  2.4021246E+02
 2.2947247E+01  2.2483936E+02
 2.2967123E+01  2.0507568E+02
 2.2986998E+01  1.8417314E+02
 2.3006874E+01  1.6678520E+02
 2.3026751E+01  1.5541133E+02
 2.3046627E+01  1.4897147E+02
 2.3066504E+01  1.4528241E+02
 2.3086380E+01  1.4281143E+02
 2.3106256E+01  1.4066452E+02
 2.3126133E+01  1.3897847E+02
 2.3146009E+01  1.3795937E+02
 2.3165886E+01  1.3785933E+02
 2.3185762E+01  1.3933104E+02
 2.3205639E+01  1.4260721E+02
 2.3225515E+01  1.4738692E+02
 2.3245392E+01  1.5311176E+02
 2.3265266E+01  1.5898729E+02
 2.3285143E+01  1.6431664E+02
 2.3305019E+01  1.6831471E+02
 2.3324896E+01  1.7026057E+02
 2.3344772E+01  1.6995447E+02
 2.3364649E+01  1.6784027E+02
 2.3384525E+01  1.6417268E+02
 2.3404402E+01  1.6000148E+02
 2.3424278E+01  1.5665076E+02
 2.3444155E+01  1.5483131E+02
 2.3464031E+01  1.5462534E+02
 2.3483908E+01  1.5628111E+02
 2.3503784E+01  1.5989674E+02
 2.3523661E+01  1.6663002E+02
 2.3543537E+01  1.7876337E+02
 2.3563412E+01  2.0116969E+02
 2.3583288E+01  2.4151756E+02
 2.3603165E+01  3.0158441E+02
 2.3623041E+01  3.7268161E+02
 2.3642918E+01  4.3237698E+02
 2.3662794E+01  4.5405923E+02
 2.3682671E+01  4.3465863E+02
 2.3702547E+01  3.8521368E+02
 2.3722424E+01  3.1407562E+02
 2.3742300E+01  2.3952074E+02
 2.3762177E+01  1.8378090E+02
 2.3782053E+01  1.5059871E+02
 2.3801929E+01  1.3148196E+02
 2.3821806E+01  1.1998904E+02
 2.3841682E+01  1.1386206E+02
 2.3861557E+01  1.1135849E+02
 2.3881433E+01  1.0986600E+02
 2.3901310E+01  1.0828754E+02
 2.3921186E+01  1.0675375E+02
 2.3941063E+01  1.0557094E+02
 2.3960939E+01  1.0477192E+02
 2.3980816E+01  1.0404901E+02
 2.4000692E+01  1.0315556E+02
 2.4020569E+01  1.0249574E+02
 2.4040445E+01  1.0203883E+02
 2.4060322E+01  1.0165623E+02
 2.4080198E+01  1.0135042E+02
 2.4100075E+01  1.0079600E+02
 2.4119951E+01  1.0011703E+02
 2.4139826E+01  9.9763512E+01
 2.4159702E+01  9.9671844E+01
 2.4179579E+01  9.9682022E+01
 2.4199455E+01  9.9946754E+01
 2.4219332E+01  1.0001328E+02
 2.4239208E+01  9.9654167E+01
 2.4259085E+01  9.8810059E+01
 2.4278961E+01  9.7441414E+01
 2.4298838E+01  9.5780296E+01
 2.4318714E+01  9.4054016E+01
 2.4338591E+01  9.2613579E+01
 2.4358467E+01  9.1458153E+01
 2.4378344E+01  9.0504524E+01
 2.4398220E+01  9.0038116E+01
 2.4418097E+01  8.9607147E+01
 2.4437971E+01  8.9496765E+01
 2.4457848E+01  8.9493515E+01
 2.4477724E+01  8.9734261E+01
 2.4497601E+01  9.0329277E+01
 2.4517477E+01  9.0763596E+01
 2.4537354E+01  9.0940575E+01
 2.4557230E+01  9.0986740E+01
 2.4577106E+01  9.1113815E+01
 2.4596983E+01  9.1583702E+01
 2.4616859E+01  9.2569969E+01
 2.4636736E+01  9.3900780E+01
 2.4656612E+01  9.5674721E+01
 2.4676489E+01  9.8066406E+01
 2.4696365E+01  1.0095603E+02
 2.4716240E+01  1.0393132E+02
 2.4736116E+01  1.0616698E+02
 2.4755993E+01  1.0682263E+02
 2.4775869E+01  1.0563334E+02
 2.4795746E+01  1.0294525E+02
 2.4815622E+01  9.9881142E+01
 2.4835499E+01  9.7010658E+01
 2.4855375E+01  9.5100044E+01
 2.4875252E+01  9.3993881E+01
 2.4895128E+01  9.3607132E+01
 2.4915005E+01  9.3764053E+01
 2.4934881E+01  9.4014061E+01
 2.4954758E+01  9.4181808E+01
 2.4974634E+01  9.4269348E+01
 2.4994511E+01  9.4119225E+01
 2.5014385E+01  9.4147438E+01
 2.5034262E+01  9.4432777E+01
 2.5054138E+01  9.5241562E+01
 2.5074015E+01  9.6581055E+01
 2.5093891E+01  9.9011818E+01
 2.5113768E+01  1.0251180E+02
 2.5133644E+01  1.0716886E+02
 2.5153521E+01  1.1322714E+02
 2.5173397E+01  1.2042828E+02
 2.5193274E+01  1.2774396E+02
 2.5213150E+01  1.3334096E+02
 2.5233027E+01  1.3475420E+02
 2.5252903E+01  1.3142032E+02
 2.5272779E+01  1.2485585E+02
 2.5292656E+01  1.1713451E+02
 2.5312531E+01  1.0971601E+02
 2.5332407E+01  1.0392281E+02
 2.5352283E+01  1.0035178E+02
 2.5372160E+01  9.8156082E+01
 2.5392036E+01  9.5986534E+01
 2.5411913E+01  9.4364357E+01
 2.5431789E+01  9.3177704E+01
 2.5451666E+01  9.2559448E+01
 2.5471542E+01  9.2721542E+01
 2.5491419E+01  9.3563568E+01
 2.5511295E+01  9.5131348E+01
 2.5531172E+01  9.7262901E+01
 2.5551048E+01  9.9779686E+01
 2.5570925E+01  1.0236032E+02
 2.5590799E+01  1.0439402E+02
 2.5610676E+01  1.0554996E+02
 2.5630552E+01  1.0604707E+02
 2.5650429E+01  1.0604721E+02
 2.5670305E+01  1.0578371E+02
 2.5690182E+01  1.0465252E+02
 2.5710058E+01  1.0192776E+02
 2.5729935E+01  9.8265358E+01
 2.5749811E+01  9.4560226E+01
 2.5769688E+01  9.1702202E+01
 2.5789564E+01  8.9813416E+01
 2.5809441E+01  8.9008652E+01
 2.5829317E+01  8.9160515E+01
 2.5849194E+01  8.9652214E+01
 2.5869070E+01  9.0508781E+01
 2.5888945E+01  9.1565659E+01
 2.5908821E+01  9.2671150E+01
 2.5928698E+01  9.3515091E+01
 2.5948574E+01  9.3930023E+01
 2.5968451E+01  9.3914528E+01
 2.5988327E+01  9.3523735E+01
 2.6008204E+01  9.3060745E+01
 2.6028080E+01  9.2599174E+01
 2.6047956E+01  9.2004845E+01
 2.6067833E+01  9.1636337E+01
 2.6087709E+01  9.1481697E+01
 2.6107586E+01  9.1241730E+01
 2.6127462E+01  9.0577843E+01
 2.6147339E+01  8.9752197E+01
 2.6167215E+01  8.9095375E+01
 2.6187090E+01  8.8624901E+01
 2.6206966E+01  8.8312393E+01
 2.6226843E+01  8.8080193E+01
 2.6246719E+01  8.7876511E+01
 2.6266596E+01  8.7693848E+01
 2.6286472E+01  8.7810791E+01
 2.6306349E+01  8.7799080E+01
 2.6326225E+01  8.7692406E+01
 2.6346102E+01  8.7375641E+01
 2.6365978E+01  8.7217934E+01
 2.6385855E+01  8.7587128E+01
 2.6405731E+01  8.8558548E+01
 2.6425608E+01  9.0709846E+01
 2.6445484E+01  9.4876907E+01
 2.6465359E+01  1.0231963E+02
 2.6485235E+01  1.1382449E+02
 2.6505112E+01  1.2812755E+02
 2.6524988E+01  1.4216637E+02
 2.6544865E+01  1.5269092E+02
 2.6564741E+01  1.6048770E+02
 2.6584618E+01  1.6788979E+02
 2.6604494E+01  1.7400922E+02
 2.6624371E+01  1.7385744E+02
 2.6644247E+01  1.6467831E+02
 2.6664124E+01  1.5006680E+02
 2.6684000E+01  1.3521315E+02
 2.6703876E+01  1.2231264E+02
 2.6723753E+01  1.1282815E+02
 2.6743629E+01  1.0769753E+02
 2.6763504E+01  1.0674025E+02
 2.6783381E+01  1.0799912E+02
 2.6803257E+01  1.0964505E+02
 2.6823133E+01  1.1040391E+02
 2.6843010E+01  1.1029770E+02
 2.6862886E+01  1.1029686E+02
 2.6882763E+01  1.1118391E+02
 2.6902639E+01  1.1322246E+02
 2.6922516E+01  1.1575514E+02
 2.6942392E+01  1.1915605E+02
 2.6962269E+01  1.2344830E+02
 2.6982145E+01  1.2807808E+02
 2.7002022E+01  1.3223254E+02
 2.7021898E+01  1.3457710E+02
 2.7041773E+01  1.3398186E+02
 2.7061649E+01  1.3023485E+02
 2.7081526E+01  1.2499554E+02
 2.7101402E+01  1.2004153E+02
 2.7121279E+01  1.1658521E+02
 2.7141155E+01  1.1412306E+02
 2.7161032E+01  1.1149551E+02
 2.7180908E+01  1.0823539E+02
 2.7200785E+01  1.0447205E+02
 2.7220661E+01  1.0079633E+02
 2.7240538E+01  9.6972229E+01
 2.7260414E+01  9.3484657E+01
 2.7280291E+01  9.0729355E+01
 2.7300167E+01  8.8518738E+01
 2.7320044E+01  8.7199570E+01
 2.7339918E+01  8.6348503E+01
 2.7359795E+01  8.5894005E+01
 2.7379671E+01  8.5728249E+01
 2.7399548E+01  8.5554459E+01
 2.7419424E+01  8.5284355E+01
 2.7439301E+01  8.5025566E+01
 2.7459177E+01  8.4856102E+01
 2.7479053E+01  8.4781822E+01
 2.7498930E+01  8.4924164E+01
 2.7518806E+01  8.5205399E+01
 2.7538683E+01  8.5367599E+01
 2.7558559E+01  8.5244774E+01
 2.7578436E+01  8.4830566E+01
 2.7598312E+01  8.4511238E+01
 2.7618189E+01  8.4091537E+01
 2.7638063E+01  8.3578964E+01
 2.7657940E+01  8.3320908E+01
 2.7677816E+01  8.3070343E+01
 2.7697693E+01  8.2914604E+01
 2.7717569E+01  8.3009239E+01
 2.7737446E+01  8.3229408E+01
 2.7757322E+01  8.3603645E+01
 2.7777199E+01  8.4229248E+01
 2.7797075E+01  8.4905518E+01
 2.7816952E+01  8.5985390E+01
 2.7836828E+01  8.7303452E+01
 2.7856705E+01  8.9024590E+01
 2.7876581E+01  9.1441223E+01
 2.7896458E+01  9.4825233E+01
 2.7916332E+01  9.9244232E+01
 2.7936209E+01  1.0401457E+02
 2.7956085E+01  1.0825534E+02
 2.7975962E+01  1.1204069E+02
 2.7995838E+01  1.1589233E+02
 2.8015715E+01  1.2034351E+02
 2.8035591E+01  1.2510200E+02
 2.8055468E+01  1.3002678E+02
 2.8075344E+01  1.3490942E+02
 2.8095221E+01  1.4022612E+02
 2.8115097E+01  1.4691710E+02
 2.8134974E+01  1.5582719E+02
 2.8154850E+01  1.6785446E+02
 2.8174726E+01  1.8362505E+02
 2.8194603E+01  2.0519965E+02
 2.8214478E+01  2.3590080E+02
 2.8234354E+01  2.7212314E+02
 2.8254230E+01  2.9926550E+02
 2.8274107E+01  3.0482538E+02
 2.8293983E+01  2.9034927E+02
 2.8313860E+01  2.6312750E+02
 2.8333736E+01  2.2812508E+02
 2.8353613E+01  1.8824757E+02
 2.8373489E+01  1.5312347E+02
 2.8393366E+01  1.3454131E+02
 2.8413242E+01  1.3157405E+02
 2.8433119E+01  1.3957025E+02
 2.8452995E+01  1.5086656E+02
 2.8472872E+01  1.5810455E+02
 2.8492748E+01  1.5807416E+02
 2.8512623E+01  1.5130750E+02
 2.8532499E+01  1.4119086E+02
 2.8552376E+01  1.3145900E+02
 2.8572252E+01  1.2254880E+02
 2.8592129E+01  1.1333092E+02
 2.8612005E+01  1.0520158E+02
 2.8631882E+01  9.9466621E+01
 2.8651758E+01  9.6544647E+01
 2.8671635E+01  9.5041954E+01
 2.8691511E+01  9.3903267E+01
 2.8711388E+01  9.2536858E+01
 2.8731264E+01  9.1510536E+01
 2.8751141E+01  9.0303818E+01
 2.8771017E+01  8.9391220E+01
 2.8790892E+01  8.8757256E+01
 2.8810768E+01  8.8326576E+01
 2.8830645E+01  8.8251205E+01
 2.8850521E+01  8.8571503E+01
 2.8870398E+01  8.9197365E+01
 2.8890274E+01  8.9792953E+01
 2.8910151E+01  9.0399879E+01
 2.8930027E+01  9.0999413E+01
 2.8949903E+01  9.1243797E+01
 2.8969780E+01  9.0689621E+01
 2.8989656E+01  8.9223167E+01
 2.9009533E+01  8.7128128E+01
 2.9029409E+01  8.5217949E+01
 2.9049286E+01  8.3517426E+01
 2.9069162E+01  8.2536194E+01
 2.9089037E+01  8.2042122E+01
 2.9108913E+01  8.1862350E+01
 2.9128790E+01  8.1779770E+01
 2.9148666E+01  8.1845871E+01
 2.9168543E+01  8.2173645E+01
 2.9188419E+01  8.2824852E+01
 2.9208296E+01  8.3829895E+01
 2.9228172E+01  8.5603485E+01
 2.9248049E+01  8.8756752E+01
 2.9267925E+01  9.3462433E+01
 2.9287802E+01  9.9693237E+01
 2.9307678E+01  1.0557343E+02
 2.9327555E+01  1.0840705E+02
 2.9347431E+01  1.0716724E+02
 2.9367306E+01  1.0436099E+02
 2.9387182E+01  1.0256238E+02
 2.9407059E+01  1.0292654E+02
 2.9426935E+01  1.0494577E+02
 2.9446812E+01  1.0782557E+02
 2.9466688E+01  1.1084398E+02
 2.9486565E+01  1.1321854E+02
 2.9506441E+01  1.1409029E+02
 2.9526318E+01  1.1266816E+02
 2.9546194E+01  1.0922071E+02
 2.9566071E+01  1.0544830E+02
 2.9585947E+01  1.0218240E+02
 2.9605824E+01  9.9328117E+01
 2.9625700E+01  9.6244049E+01
 2.9645576E+01  9.3075920E+01
 2.9665451E+01  9.0233238E+01
 2.9685328E+01  8.8041855E+01
 2.9705204E+01  8.6666153E+01
 2.9725080E+01  8.5896660E+01
 2.9744957E+01  8.5679443E+01
 2.9764833E+01  8.5985649E+01
 2.9784710E+01  8.6681053E+01
 2.9804586E+01  8.7051285E+01
 2.9824463E+01  8.7409729E+01
 2.9844339E+01  8.7939514E+01
 2.9864216E+01  8.8551804E+01
 2.9884092E+01  8.9344032E+01
 2.9903969E+01  8.9888107E+01
 2.9923845E+01  9.0375786E+01
 2.9943722E+01  9.0639252E+01
 2.9963596E+01  9.1142441E+01
 2.9983473E+01  9.1936333E+01
 3.0003349E+01  9.3225624E+01
 3.0023226E+01  9.4943260E+01
 3.0043102E+01  9.6992233E+01
 3.0062979E+01  9.8872902E+01
 3.0082855E+01  1.0039351E+02
 3.0102732E+01  1.0082484E+02
 3.0122608E+01  1.0031665E+02
 3.0142485E+01  9.8791023E+01
 3.0162361E+01  9.6881630E+01
 3.0182238E+01  9.4892754E+01
 3.0202114E+01  9.3242134E+01
 3.0221991E+01  9.2020668E+01
 3.0241865E+01  9.1760918E+01
 3.0261742E+01  9.1786705E+01
 3.0281618E+01  9.2030884E+01
 3.0301495E+01  9.1955154E+01
 3.0321371E+01  9.1799294E+01
 3.0341248E+01  9.1609772E+01
 3.0361124E+01  9.1699860E+01
 3.0381001E+01  9.1639442E+01
 3.0400877E+01  9.1916603E+01
 3.0420753E+01  9.2057358E+01
 3.0440630E+01  9.2020363E+01
 3.0460506E+01  9.1688423E+01
 3.0480383E+01  9.0968094E+01
 3.0500259E+01  8.9750809E+01
 3.0520136E+01  8.8555565E+01
 3.0540010E+01  8.7129623E+01
 3.0559887E+01  8.5320976E+01
 3.0579763E+01  8.2968376E+01
 3.0599640E+01  8.0589973E+01
 3.0619516E+01  7.8669083E+01
 3.0639393E+01  7.7255341E+01
 3.0659269E+01  7.6160080E+01
 3.0679146E+01  7.5375534E+01
 3.0699022E+01  7.4819183E+01
 3.0718899E+01  7.4660339E+01
 3.0738775E+01  7.4938347E+01
 3.0758652E+01  7.5715256E+01
 3.0778528E+01  7.7159233E+01
 3.0798405E+01  7.8958084E+01
 3.0818281E+01  8.0707710E+01
 3.0838156E+01  8.1734146E+01
 3.0858032E+01  8.1744774E+01
 3.0877909E+01  8.0943039E+01
 3.0897785E+01  8.0221169E+01
 3.0917662E+01  8.0085236E+01
 3.0937538E+01  8.0494499E+01
 3.0957415E+01  8.1590446E+01
 3.0977291E+01  8.2767128E+01
 3.0997168E+01  8.3583618E+01
 3.1017044E+01  8.4090179E+01
 3.1036921E+01  8.4894745E+01
 3.1056797E+01  8.6524712E+01
 3.1076674E+01  8.9291786E+01
 3.1096550E+01  9.3990555E+01
 3.1116425E+01  1.0058181E+02
 3.1136301E+01  1.0814307E+02
 3.1156178E+01  1.1439019E+02
 3.1176054E+01  1.1805901E+02
 3.1195930E+01  1.1966775E+02
 3.1215807E+01  1.2065495E+02
 3.1235683E+01  1.2105642E+02
 3.1255560E+01  1.1959966E+02
 3.1275436E+01  1.1483604E+02
 3.1295313E+01  1.0705749E+02
 3.1315189E+01  9.8648575E+01
 3.1335066E+01  9.1474480E+01
 3.1354942E+01  8.6127022E+01
 3.1374819E+01  8.2109764E+01
 3.1394695E+01  7.9224998E+01
 3.1414570E+01  7.7330818E+01
 3.1434446E+01  7.5688927E+01
 3.1454323E+01  7.4507339E+01
 3.1474199E+01  7.3691795E+01
 3.1494076E+01  7.3133095E+01
 3.1513952E+01  7.2877556E+01
 3.1533829E+01  7.2737907E+01
 3.1553705E+01  7.2936302E+01
 3.1573582E+01  7.3237274E+01
 3.1593458E+01  7.3819382E+01
 3.1613335E+01  7.4730461E+01
 3.1633211E+01  7.5821175E+01
 3.1653088E+01  7.6869278E+01
 3.1672964E+01  7.7871262E+01
 3.1692841E+01  7.9003731E+01
 3.1712715E+01  8.0230698E+01
 3.1732592E+01  8.1486412E+01
 3.1752468E+01  8.2656532E+01
 3.1772345E+01  8.3948250E+01
 3.1792221E+01  8.4964775E+01
 3.1812098E+01  8.6852875E+01
 3.1831974E+01  9.0367821E+01
 3.1851851E+01  9.5916191E+01
 3.1871727E+01  1.0334236E+02
 3.1891603E+01  1.1168206E+02
 3.1911480E+01  1.1919768E+02
 3.1931356E+01  1.2528809E+02
 3.1951233E+01  1.2997707E+02
 3.1971109E+01  1.3141077E+02
 3.1990984E+01  1.2807422E+02
 3.2010860E+01  1.2070641E+02
 3.2030739E+01  1.1272267E+02
 3.2050613E+01  1.0754367E+02
 3.2070492E+01  1.0546075E+02
 3.2090366E+01  1.0486221E+02
 3.2110245E+01  1.0441149E+02
 3.2130119E+01  1.0381702E+02
 3.2149994E+01  1.0322175E+02
 3.2169872E+01  1.0335278E+02
 3.2189747E+01  1.0360272E+02
 3.2209625E+01  1.0416778E+02
 3.2229500E+01  1.0454550E+02
 3.2249378E+01  1.0510265E+02
 3.2269253E+01  1.0571031E+02
 3.2289131E+01  1.0675387E+02
 3.2309006E+01  1.0864647E+02
 3.2328884E+01  1.1096214E+02
 3.2348759E+01  1.1321902E+02
 3.2368637E+01  1.1450616E+02
 3.2388512E+01  1.1536636E+02
 3.2408390E+01  1.1592065E+02
 3.2428265E+01  1.1539434E+02
 3.2448139E+01  1.1372082E+02
 3.2468018E+01  1.1049145E+02
 3.2487892E+01  1.0673658E+02
 3.2507771E+01  1.0271476E+02
 3.2527645E+01  9.9006592E+01
 3.2547523E+01  9.5528984E+01
 3.2567398E+01  9.2417572E+01
 3.2587276E+01  8.9199272E+01
 3.2607151E+01  8.6254219E+01
 3.2627029E+01  8.3715340E+01
 3.2646904E+01  8.1597694E+01
 3.2666782E+01  7.9858742E+01
 3.2686657E+01  7.8339233E+01
 3.2706535E+01  7.6976707E+01
 3.2726410E+01  7.6087914E+01
 3.2746284E+01  7.5180412E+01
 3.2766163E+01  7.4450729E+01
 3.2786037E+01  7.3620476E+01
 3.2805916E+01  7.3151871E+01
 3.2825790E+01  7.2839569E+01
 3.2845669E+01  7.2549454E+01
 3.2865543E+01  7.2537445E+01
 3.2885422E+01  7.2969482E+01
 3.2905296E+01  7.3875092E+01
 3.2925175E+01  7.5171341E+01
 3.2945049E+01  7.6968887E+01
 3.2964928E+01  7.8926064E+01
 3.2984802E+01  8.0506554E+01
 3.3004677E+01  8.1264015E+01
 3.3024555E+01  8.1182076E+01
 3.3044430E+01  8.0641212E+01
 3.3064308E+01  7.9787567E+01
 3.3084183E+01  7.8566681E+01
 3.3104061E+01  7.7084770E+01
 3.3123936E+01  7.5807892E+01
 3.3143814E+01  7.4952942E+01
 3.3163689E+01  7.4284500E+01
 3.3183567E+01  7.3909447E+01
 3.3203442E+01  7.3790344E+01
 3.3223320E+01  7.3801109E+01
 3.3243195E+01  7.3870560E+01
 3.3263073E+01  7.3935555E+01
 3.3282948E+01  7.4030830E+01
 3.3302822E+01  7.3938736E+01
 3.3322701E+01  7.4013756E+01
 3.3342575E+01  7.3858040E+01
 3.3362453E+01  7.3811020E+01
 3.3382328E+01  7.4651222E+01
 3.3402206E+01  7.5499184E+01
 3.3422081E+01  7.6276161E+01
 3.3441959E+01  7.6810745E+01
 3.3461834E+01  7.7050148E+01
 3.3481712E+01  7.6967148E+01
 3.3501587E+01  7.6328102E+01
 3.3521465E+01  7.5865868E+01
 3.3541340E+01  7.5761894E+01
 3.3561218E+01  7.5956482E+01
 3.3581093E+01  7.7540947E+01
 3.3600967E+01  7.9734848E+01
 3.3620846E+01  8.2467941E+01
 3.3640720E+01  8.5895805E+01
 3.3660599E+01  8.9495155E+01
 3.3680473E+01  9.2127876E+01
 3.3700352E+01  9.4189339E+01
 3.3720226E+01  9.5634583E+01
 3.3740105E+01  9.5694862E+01
 3.3759979E+01  9.5154396E+01
 3.3779858E+01  9.5293602E+01
 3.3799732E+01  9.6123100E+01
 3.3819611E+01  9.7108063E+01
 3.3839485E+01  9.8059265E+01
 3.3859364E+01  9.8616310E+01
 3.3879238E+01  9.9276543E+01
 3.3899113E+01  9.9603462E+01
 3.3918991E+01  9.8360878E+01
 3.3938866E+01  9.5051979E+01
 3.3958744E+01  8.9990181E+01
 3.3978619E+01  8.5485718E+01
 3.3998497E+01  8.2262878E+01
 3.4018372E+01  7.9670609E+01
 3.4038250E+01  7.7847710E+01
 3.4058125E+01  7.6200050E+01
 3.4078003E+01  7.4754158E+01
 3.4097878E+01  7.3885521E+01
 3.4117756E+01  7.3395683E+01
 3.4137630E+01  7.3409599E+01
 3.4157509E+01  7.4002731E+01
 3.4177383E+01  7.5069153E+01
 3.4197258E+01  7.6220901E+01
 3.4217136E+01  7.7168854E+01
 3.4237011E+01  7.7956444E+01
 3.4256889E+01  7.8380875E+01
 3.4276764E+01  7.8619080E+01
 3.4296642E+01  7.8583801E+01
 3.4316517E+01  7.8377838E+01
 3.4336395E+01  7.8343491E+01
 3.4356270E+01  7.8518936E+01
 3.4376148E+01  7.9088295E+01
 3.4396023E+01  8.0088768E+01
 3.4415901E+01  8.1145149E+01
 3.4435776E+01  8.2251869E+01
 3.4455650E+01  8.3497169E+01
 3.4475529E+01  8.4164230E+01
 3.4495403E+01  8.4199677E+01
 3.4515282E+01  8.3366646E+01
 3.4535156E+01  8.1492081E+01
 3.4555035E+01  7.9385330E+01
 3.4574909E+01  7.7187927E+01
 3.4594788E+01  7.5578880E+01
 3.4614662E+01  7.4349754E+01
 3.4634541E+01  7.2926399E+01
 3.4654415E+01  7.1822281E+01
 3.4674294E+01  7.1007668E+01
 3.4694168E+01  7.0335823E+01
 3.4714046E+01  6.9784691E+01
 3.4733921E+01  6.9541710E+01
 3.4753796E+01  6.9682220E+01
 3.4773674E+01  6.9983284E+01
 3.4793549E+01  7.0583771E+01
 3.4813427E+01  7.1436913E+01
 3.4833302E+01  7.2885292E+01
 3.4853180E+01  7.5317116E+01
 3.4873055E+01  7.9073593E+01
 3.4892933E+01  8.5242027E+01
 3.4912807E+01  9.6078857E+01
 3.4932686E+01  1.1451192E+02
 3.4952560E+01  1.4342590E+02
 3.4972439E+01  1.8137698E+02
 3.4992313E+01  2.1754703E+02
 3.5012192E+01  2.4023183E+02
 3.5032066E+01  2.4666113E+02
 3.5051941E+01  2.4085152E+02
 3.5071819E+01  2.3348969E+02
 3.5091694E+01  2.2952133E+02
 3.5111572E+01  2.2222676E+02
 3.5131447E+01  2.1056216E+02
 3.5151325E+01  1.9356099E+02
 3.5171200E+01  1.6967226E+02
 3.5191078E+01  1.4425105E+02
 3.5210953E+01  1.2259522E+02
 3.5230831E+01  1.0641521E+02
 3.5250706E+01  9.5895721E+01
 3.5270584E+01  8.8845085E+01
 3.5290459E+01  8.3966934E+01
 3.5310337E+01  8.0252998E+01
 3.5330212E+01  7.7146088E+01
 3.5350086E+01  7.4737419E+01
 3.5369965E+01  7.2973991E+01
 3.5389839E+01  7.1846222E+01
 3.5409718E+01  7.0859261E+01
 3.5429592E+01  6.9947289E+01
 3.5449471E+01  6.9549797E+01
 3.5469345E+01  6.9147377E+01
 3.5489223E+01  6.8906898E+01
 3.5509098E+01  6.8416588E+01
 3.5528976E+01  6.7875473E+01
 3.5548851E+01  6.7757431E+01
 3.5568729E+01  6.7730385E+01
 3.5588604E+01  6.7839325E+01
 3.5608482E+01  6.7796204E+01
 3.5628357E+01  6.7872162E+01
 3.5648232E+01  6.8031364E+01
 3.5668110E+01  6.8228157E+01
 3.5687984E+01  6.8424019E+01
 3.5707863E+01  6.8780373E+01
 3.5727737E+01  6.9512444E+01
 3.5747616E+01  7.0704735E+01
 3.5767490E+01  7.1878136E+01
 3.5787369E+01  7.2821869E+01
 3.5807243E+01  7.3410110E+01
 3.5827122E+01  7.3342033E+01
 3.5846996E+01  7.3010841E+01
 3.5866875E+01  7.2806755E+01
 3.5886749E+01  7.2861458E+01
 3.5906628E+01  7.2941002E+01
 3.5926502E+01  7.3126434E+01
 3.5946377E+01  7.3396690E+01
 3.5966255E+01  7.3579697E+01
 3.5986130E+01  7.3914642E+01
 3.6006008E+01  7.4111366E+01
 3.6025883E+01  7.4196396E+01
 3.6045761E+01  7.4223038E+01
 3.6065636E+01  7.4269341E+01
 3.6085514E+01  7.4371941E+01
 3.6105389E+01  7.4348183E+01
 3.6125267E+01  7.4332710E+01
 3.6145142E+01  7.4116890E+01
 3.6165020E+01  7.3679688E+01
 3.6184895E+01  7.3194008E+01
 3.6204769E+01  7.2570221E+01
 3.6224648E+01  7.1665077E+01
 3.6244522E+01  7.0851433E+01
 3.6264400E+01  7.0112633E+01
 3.6284275E+01  6.9823112E+01
 3.6304153E+01  6.9833908E+01
 3.6324028E+01  6.9952507E+01
 3.6343906E+01  7.0687241E+01
 3.6363781E+01  7.2088905E+01
 3.6383659E+01  7.4416626E+01
 3.6403534E+01  7.7024857E+01
 3.6423412E+01  7.9229187E+01
 3.6443287E+01  8.0556084E+01
 3.6463165E+01  8.1218330E+01
 3.6483040E+01  8.1468056E+01
 3.6502914E+01  8.1409798E+01
 3.6522793E+01  8.1258568E+01
 3.6542667E+01  8.1204369E+01
 3.6562546E+01  8.1122070E+01
 3.6582420E+01  8.1079468E+01
 3.6602299E+01  8.0509918E+01
 3.6622173E+01  7.9649384E+01
 3.6642052E+01  7.8402428E+01
 3.6661926E+01  7.6810066E+01
 3.6681805E+01  7.4925575E+01
 3.6701679E+01  7.3374184E+01
 3.6721558E+01  7.2101273E+01
 3.6741432E+01  7.1105598E+01
 3.6761311E+01  7.0144562E+01
 3.6781185E+01  6.9385750E+01
 3.6801060E+01  6.8710953E+01
 3.6820938E+01  6.8304802E+01
 3.6840813E+01  6.7563507E+01
 3.6860691E+01  6.6976051E+01
 3.6880566E+01  6.6612007E+01
 3.6900444E+01  6.6527611E+01
 3.6920319E+01  6.6461075E+01
 3.6940197E+01  6.6235435E+01
 3.6960072E+01  6.6020058E+01
 3.6979950E+01  6.6000687E+01
 3.6999825E+01  6.6173058E+01
 3.7019703E+01  6.6418152E+01
 3.7039577E+01  6.6754486E+01
 3.7059456E+01  6.7584213E+01
 3.7079330E+01  6.8538910E+01
 3.7099205E+01  6.9191338E+01
 3.7119083E+01  6.9899605E+01
 3.7138958E+01  7.0245743E+01
 3.7158836E+01  7.0487267E+01
 3.7178711E+01  7.0360481E+01
 3.7198589E+01  7.0003654E+01
 3.7218464E+01  6.9372520E+01
 3.7238342E+01  6.8831924E+01
 3.7258217E+01  6.8522804E+01
 3.7278095E+01  6.8120827E+01
 3.7297970E+01  6.7843185E+01
 3.7317848E+01  6.7382095E+01
 3.7337723E+01  6.7021217E+01
 3.7357601E+01  6.6928795E+01
 3.7377476E+01  6.6700500E+01
 3.7397350E+01  6.6564682E+01
 3.7417229E+01  6.6931915E+01
 3.7437103E+01  6.7501221E+01
 3.7456982E+01  6.7999527E+01
 3.7476856E+01  6.8758568E+01
 3.7496735E+01  7.0157211E+01
 3.7516609E+01  7.1962486E+01
 3.7536488E+01  7.3144218E+01
 3.7556362E+01  7.3626549E+01
 3.7576241E+01  7.3868576E+01
 3.7596115E+01  7.5168304E+01
 3.7615993E+01  7.7290382E+01
 3.7635868E+01  7.9880867E+01
 3.7655743E+01  8.2664978E+01
 3.7675621E+01  8.4240196E+01
 3.7695496E+01  8.4271637E+01
 3.7715374E+01  8.3270821E+01
 3.7735249E+01  8.1819008E+01
 3.7755127E+01  8.0756050E+01
 3.7775002E+01  8.0540222E+01
 3.7794880E+01  8.0619980E+01
 3.7814754E+01  8.1612373E+01
 3.7834633E+01  8.3445168E+01
 3.7854507E+01  8.6254570E+01
 3.7874386E+01  9.0107384E+01
 3.7894260E+01  9.5986519E+01
 3.7914139E+01  1.0363215E+02
 3.7934013E+01  1.1338925E+02
 3.7953888E+01  1.2627925E+02
 3.7973766E+01  1.4150716E+02
 3.7993641E+01  1.5705971E+02
 3.8013519E+01  1.6840829E+02
 3.8033394E+01  1.7405272E+02
 3.8053272E+01  1.7605446E+02
 3.8073147E+01  1.7208360E+02
 3.8093025E+01  1.6136621E+02
 3.8112900E+01  1.4509427E+02
 3.8132778E+01  1.2831944E+02
 3.8152653E+01  1.1555605E+02
 3.8172531E+01  1.0690392E+02
 3.8192406E+01  1.0092746E+02
 3.8212284E+01  9.5791977E+01
 3.8232159E+01  9.1217506E+01
 3.8252033E+01  8.7420357E+01
 3.8271912E+01  8.4291428E+01
 3.8291786E+01  8.2090500E+01
 3.8311665E+01  8.0523438E+01
 3.8331539E+01  7.9207062E+01
 3.8351418E+01  7.8260193E+01
 3.8371292E+01  7.7921364E+01
 3.8391171E+01  7.8113342E+01
 3.8411045E+01  7.8215210E+01
 3.8430923E+01  7.8599953E+01
 3.8450798E+01  7.8538002E+01
 3.8470676E+01  7.8189484E+01
 3.8490551E+01  7.8586861E+01
 3.8510429E+01  7.9674744E+01
 3.8530304E+01  8.0707077E+01
 3.8550179E+01  8.1875343E+01
 3.8570057E+01  8.2687637E+01
 3.8589931E+01  8.3054329E+01
 3.8609810E+01  8.2908226E+01
 3.8629684E+01  8.2106346E+01
 3.8649563E+01  8.1068291E+01
 3.8669437E+01  7.9876305E+01
 3.8689316E+01  7.9144600E+01
 3.8709190E+01  7.8541100E+01
 3.8729069E+01  7.8101631E+01
 3.8748943E+01  7.7560493E+01
 3.8768822E+01  7.7352341E+01
 3.8788696E+01  7.7338440E+01
 3.8808575E+01  7.7268097E+01
 3.8828449E+01  7.7009209E+01
 3.8848324E+01  7.7015038E+01
 3.8868202E+01  7.7731682E+01
 3.8888077E+01  7.8325516E+01
 3.8907955E+01  7.8850060E+01
 3.8927830E+01  7.9128181E+01
 3.8947708E+01  7.9124268E+01
 3.8967583E+01  7.8750580E+01
 3.8987461E+01  7.8733330E+01
 3.9007336E+01  7.8314644E+01
 3.9027214E+01  7.7870201E+01
 3.9047089E+01  7.7384544E+01
 3.9066967E+01  7.6591995E+01
 3.9086842E+01  7.5886597E+01
 3.9106720E+01  7.5257301E+01
 3.9126595E+01  7.4658142E+01
 3.9146469E+01  7.4612854E+01
 3.9166348E+01  7.4664932E+01
 3.9186222E+01  7.5020790E+01
 3.9206100E+01  7.5734520E+01
 3.9225975E+01  7.7493065E+01
 3.9245853E+01  7.8898918E+01
 3.9265728E+01  8.0504745E+01
 3.9285606E+01  8.1457664E+01
 3.9305481E+01  8.2068909E+01
 3.9325359E+01  8.2134315E+01
 3.9345234E+01  8.1508347E+01
 3.9365112E+01  8.0591270E+01
 3.9384987E+01  7.9638451E+01
 3.9404861E+01  7.8666107E+01
 3.9424740E+01  7.8212387E+01
 3.9444614E+01  7.7612183E+01
 3.9464493E+01  7.6637939E+01
 3.9484367E+01  7.5753334E+01
 3.9504246E+01  7.4879906E+01
 3.9524120E+01  7.4490150E+01
 3.9543999E+01  7.4517578E+01
 3.9563873E+01  7.4639153E+01
 3.9583752E+01  7.4564468E+01
 3.9603626E+01  7.5190819E+01
 3.9623505E+01  7.6431847E+01
 3.9643379E+01  7.7616722E+01
 3.9663258E+01  7.9049301E+01
 3.9683132E+01  8.1318924E+01
 3.9703007E+01  8.4506927E+01
 3.9722885E+01  8.7744888E+01
 3.9742760E+01  9.1421104E+01
 3.9762638E+01  9.5431992E+01
 3.9782513E+01  9.7773903E+01
 3.9802391E+01  9.8279770E+01
 3.9822266E+01  9.7517044E+01
 3.9842144E+01  9.6030205E+01
 3.9862019E+01  9.4114021E+01
 3.9881897E+01  9.1982468E+01
 3.9901772E+01  9.0149460E+01
 3.9921650E+01  8.8118599E+01
 3.9941525E+01  8.6124886E+01
 3.9961403E+01  8.4489540E+01
 3.9981277E+01  8.2701500E+01
 4.0001152E+01  8.1363541E+01
 4.0021030E+01  8.1204887E+01
 4.0040905E+01  8.2344795E+01
 4.0060783E+01  8.5431709E+01
 4.0080658E+01  9.0572609E+01
 4.0100536E+01  9.8330536E+01
 4.0120411E+01  1.0953413E+02
 4.0140289E+01  1.2304488E+02
 4.0160164E+01  1.3458281E+02
 4.0180042E+01  1.3982312E+02
 4.0199917E+01  1.3759947E+02
 4.0219795E+01  1.2834010E+02
 4.0239670E+01  1.1585043E+02
 4.0259548E+01  1.0402123E+02
 4.0279423E+01  9.5593636E+01
 4.0299297E+01  9.0589088E+01
 4.0319176E+01  8.7331520E+01
 4.0339050E+01  8.4542587E+01
 4.0358929E+01  8.2180084E+01
 4.0378803E+01  7.9746216E+01
 4.0398682E+01  7.8549690E+01
 4.0418556E+01  7.8396049E+01
 4.0438435E+01  7.8260452E+01
 4.0458309E+01  7.8491806E+01
 4.0478188E+01  7.9375984E+01
 4.0498062E+01  8.0809464E+01
 4.0517941E+01  8.2076370E+01
 4.0537815E+01  8.3352394E+01
 4.0557693E+01  8.4259178E+01
 4.0577568E+01  8.5050713E+01
 4.0597443E+01  8.5727348E+01
 4.0617321E+01  8.5944168E+01
 4.0637196E+01  8.6268707E+01
 4.0657074E+01  8.5985741E+01
 4.0676949E+01  8.4629890E+01
 4.0696827E+01  8.2917160E+01
 4.0716702E+01  8.0621941E+01
 4.0736580E+01  7.9323112E+01
 4.0756454E+01  7.8552551E+01
 4.0776333E+01  7.7448700E+01
 4.0796207E+01  7.7125061E+01
 4.0816086E+01  7.6985809E+01
 4.0835960E+01  7.6553932E+01
 4.0855835E+01  7.6510307E+01
 4.0875713E+01  7.5719116E+01
 4.0895588E+01  7.5392937E+01
 4.0915466E+01  7.4642487E+01
 4.0935341E+01  7.3473480E+01
 4.0955219E+01  7.2106995E+01
 4.0975094E+01  7.1164650E+01
 4.0994972E+01  6.9928642E+01
 4.1014847E+01  6.9664230E+01
 4.1034725E+01  6.9492653E+01
 4.1054600E+01  6.9143150E+01
 4.1074478E+01  6.9391945E+01
 4.1094353E+01  6.9528633E+01
 4.1114231E+01  6.9105293E+01
 4.1134106E+01  6.8612312E+01
 4.1153980E+01  6.8224098E+01
 4.1173859E+01  6.7781845E+01
 4.1193733E+01  6.7337860E+01
 4.1213612E+01  6.7363258E+01
 4.1233486E+01  6.7667397E+01
 4.1253365E+01  6.7904846E+01
 4.1273239E+01  6.8183052E+01
 4.1293118E+01  6.8581047E+01
 4.1312992E+01  6.9059357E+01
 4.1332870E+01  6.9050209E+01
 4.1352745E+01  6.9584763E+01
 4.1372623E+01  7.0159416E+01
 4.1392498E+01  7.0933792E+01
 4.1412376E+01  7.2551170E+01
 4.1432251E+01  7.5325134E+01
 4.1452126E+01  7.9775879E+01
 4.1472004E+01  8.6538551E+01
 4.1491879E+01  9.6454681E+01
 4.1511757E+01  1.0981727E+02
 4.1531631E+01  1.2438280E+02
 4.1551510E+01  1.3941971E+02
 4.1571384E+01  1.5041287E+02
 4.1591263E+01  1.5574001E+02
 4.1611137E+01  1.5606453E+02
 4.1631016E+01  1.5441603E+02
 4.1650890E+01  1.4956522E+02
 4.1670769E+01  1.4353101E+02
 4.1690643E+01  1.3593149E+02
 4.1710522E+01  1.2577939E+02
 4.1730396E+01  1.1618697E+02
 4.1750271E+01  1.0727608E+02
 4.1770149E+01  9.9311111E+01
 4.1790024E+01  9.2052544E+01
 4.1809902E+01  8.4928665E+01
 4.1829777E+01  7.8319092E+01
 4.1849655E+01  7.3139458E+01
 4.1869530E+01  6.9075966E+01
 4.1889408E+01  6.6622978E+01
 4.1909283E+01  6.4219841E+01
 4.1929161E+01  6.3474995E+01
 4.1949036E+01  6.2389011E+01
 4.1968914E+01  6.2165058E+01
 4.1988789E+01  6.2103561E+01
 4.2008667E+01  6.1187531E+01
 4.2028542E+01  6.0685566E+01
 4.2048416E+01  5.9802700E+01
 4.2068295E+01  5.9319145E+01
 4.2088169E+01  5.8419544E+01
 4.2108047E+01  5.8017178E+01
 4.2127922E+01  5.7579773E+01
 4.2147800E+01  5.6699326E+01
 4.2167675E+01  5.6828415E+01
 4.2187553E+01  5.6842728E+01
 4.2207428E+01  5.6940136E+01
 4.2227306E+01  5.8450191E+01
 4.2247181E+01  5.9622482E+01
 4.2267059E+01  6.1449539E+01
 4.2286934E+01  6.2645779E+01
 4.2306808E+01  6.4694084E+01
 4.2326687E+01  6.5922417E+01
 4.2346561E+01  6.6796272E+01
 4.2366440E+01  6.8010033E+01
 4.2386314E+01  7.0468178E+01
 4.2406193E+01  7.3475105E+01
 4.2426067E+01  7.5838364E+01
 4.2445946E+01  7.6887558E+01
 4.2465820E+01  7.7082977E+01
 4.2485699E+01  7.4291870E+01
 4.2505573E+01  7.0359222E+01
 4.2525452E+01  6.6013489E+01
 4.2545326E+01  6.4008141E+01
 4.2565205E+01  6.1625988E+01
 4.2585079E+01  5.9841129E+01
 4.2604954E+01  5.9457890E+01
 4.2624832E+01  5.8579929E+01
 4.2644707E+01  5.7879398E+01
 4.2664585E+01  5.6234756E+01
 4.2684460E+01  5.6493828E+01
 4.2704338E+01  5.6898354E+01
 4.2724213E+01  5.5784355E+01
 4.2744091E+01  5.5659752E+01
 4.2763966E+01  5.5965317E+01
 4.2783844E+01  5.6050377E+01
 4.2803719E+01  5.5399261E+01
 4.2823597E+01  5.4855080E+01
 4.2843472E+01  5.5564938E+01
 4.2863350E+01  5.5063751E+01
 4.2883224E+01  5.4407234E+01
 4.2903099E+01  5.4326771E+01
 4.2922977E+01  5.4238640E+01
 4.2942852E+01  5.4068684E+01
 4.2962730E+01  5.3988960E+01
 4.2982605E+01  5.2026966E+01
 4.3002483E+01  5.2213432E+01
 4.3022358E+01  5.2173225E+01
 4.3042236E+01  5.1887207E+01
 4.3062111E+01  4.9885872E+01
 4.3081989E+01  5.0684208E+01
 4.3101864E+01  4.9686481E+01
 4.3121742E+01  4.6831535E+01
 4.3141617E+01  4.4091293E+01
 4.3161495E+01  4.4305740E+01
 4.3181370E+01  4.1934330E+01
 4.3201244E+01  3.8647366E+01
 4.3221123E+01  3.6524502E+01
 4.3240997E+01  3.5756798E+01
 4.3260876E+01  3.0932457E+01
 4.3280750E+01  2.5567884E+01
 4.3300629E+01  2.4735596E+01
 4.3320503E+01  2.0221386E+01
 4.3340382E+01  6.7579842E+00
 4.3360256E+01  0.0000000E+00
 4.3380135E+01  0.0000000E+00
 4.3400009E+01  0.0000000E+00
 4.3419888E+01  0.0000000E+00
 4.3439762E+01  0.0000000E+00
 4.3459641E+01  0.0000000E+00
 4.3479515E+01  0.0000000E+00
 4.3499390E+01  0.0000000E+00
