Z:\2014_09\marccd\Sep14_00013.mccd: Q-Space Scan
Q (Inverse Nanometres)
Intensity
       2184
 1.5869056E-03  0.0000000E+00
 4.7607166E-03  0.0000000E+00
 7.9345275E-03  0.0000000E+00
 1.1108339E-02  0.0000000E+00
 1.4282150E-02  0.0000000E+00
 1.7455962E-02  0.0000000E+00
 2.0629773E-02  0.0000000E+00
 2.3803584E-02  0.0000000E+00
 2.6977394E-02  0.0000000E+00
 3.0151205E-02  0.0000000E+00
 3.3325016E-02  0.0000000E+00
 3.6498830E-02  0.0000000E+00
 3.9672639E-02  0.0000000E+00
 4.2846449E-02  0.0000000E+00
 4.6020262E-02  0.0000000E+00
 4.9194071E-02  0.0000000E+00
 5.2367885E-02  0.0000000E+00
 5.5541694E-02  0.0000000E+00
 5.8715507E-02  0.0000000E+00
 6.1889317E-02  0.0000000E+00
 6.5063126E-02  0.0000000E+00
 6.8236940E-02  0.0000000E+00
 7.1410753E-02  0.0000000E+00
 7.4584559E-02  0.0000000E+00
 7.7758372E-02  0.0000000E+00
 8.0932185E-02  0.0000000E+00
 8.4105998E-02  0.0000000E+00
 8.7279804E-02  0.0000000E+00
 9.0453617E-02  0.0000000E+00
 9.3627430E-02  0.0000000E+00
 9.6801236E-02  0.0000000E+00
 9.9975049E-02  0.0000000E+00
 1.0314886E-01  0.0000000E+00
 1.0632268E-01  0.0000000E+00
 1.0949648E-01  0.0000000E+00
 1.1267029E-01  0.0000000E+00
 1.1584411E-01  0.0000000E+00
 1.1901791E-01  0.0000000E+00
 1.2219173E-01  0.0000000E+00
 1.2536554E-01  2.8253422E+01
 1.2853935E-01  2.9682859E+01
 1.3171317E-01  2.8453156E+01
 1.3488698E-01  2.6964396E+01
 1.3806078E-01  2.5906214E+01
 1.4123459E-01  2.4731379E+01
 1.4440840E-01  2.4157036E+01
 1.4758222E-01  2.3481037E+01
 1.5075603E-01  2.2971344E+01
 1.5392984E-01  2.2409519E+01
 1.5710366E-01  2.1768064E+01
 1.6027746E-01  2.1219830E+01
 1.6345127E-01  2.0551016E+01
 1.6662508E-01  2.0080223E+01
 1.6979890E-01  1.9634344E+01
 1.7297271E-01  1.9150330E+01
 1.7614652E-01  1.8736809E+01
 1.7932034E-01  1.8742725E+01
 1.8249413E-01  1.8352568E+01
 1.8566795E-01  1.7974920E+01
 1.8884176E-01  1.7581470E+01
 1.9201557E-01  1.6989616E+01
 1.9518939E-01  1.6604572E+01
 1.9836320E-01  1.6332270E+01
 2.0153701E-01  1.6144329E+01
 2.0471081E-01  1.5758123E+01
 2.0788462E-01  1.5518938E+01
 2.1105844E-01  1.5393767E+01
 2.1423225E-01  1.5585960E+01
 2.1740606E-01  1.5205413E+01
 2.2057988E-01  1.4884878E+01
 2.2375369E-01  1.4689226E+01
 2.2692749E-01  1.4467994E+01
 2.3010130E-01  1.4404530E+01
 2.3327512E-01  1.4470593E+01
 2.3644893E-01  1.4253623E+01
 2.3962274E-01  1.3931601E+01
 2.4279656E-01  1.3855947E+01
 2.4597037E-01  1.3580940E+01
 2.4914417E-01  1.3439247E+01
 2.5231799E-01  1.3241726E+01
 2.5549179E-01  1.3081517E+01
 2.5866562E-01  1.3233666E+01
 2.6183942E-01  1.3149711E+01
 2.6501322E-01  1.2896520E+01
 2.6818705E-01  1.2799445E+01
 2.7136084E-01  1.2664760E+01
 2.7453467E-01  1.2549246E+01
 2.7770847E-01  1.2627418E+01
 2.8088230E-01  1.2561981E+01
 2.8405610E-01  1.2430039E+01
 2.8722990E-01  1.2409148E+01
 2.9040372E-01  1.2348619E+01
 2.9357752E-01  1.2255512E+01
 2.9675135E-01  1.2244907E+01
 2.9992515E-01  1.2099555E+01
 3.0309898E-01  1.1947353E+01
 3.0627277E-01  1.1944058E+01
 3.0944657E-01  1.1882822E+01
 3.1262040E-01  1.1869093E+01
 3.1579420E-01  1.1863637E+01
 3.1896803E-01  1.1920548E+01
 3.2214183E-01  1.2176270E+01
 3.2531565E-01  1.2750465E+01
 3.2848945E-01  1.2869979E+01
 3.3166325E-01  1.2882241E+01
 3.3483708E-01  1.1629640E+01
 3.3801088E-01  1.1350930E+01
 3.4118471E-01  1.1461945E+01
 3.4435850E-01  1.1528715E+01
 3.4753233E-01  1.1444272E+01
 3.5070613E-01  1.1315501E+01
 3.5387993E-01  1.1215555E+01
 3.5705376E-01  1.1266262E+01
 3.6022756E-01  1.1233833E+01
 3.6340138E-01  1.1210374E+01
 3.6657518E-01  1.1151578E+01
 3.6974901E-01  1.1117594E+01
 3.7292281E-01  1.1032340E+01
 3.7609661E-01  1.1177000E+01
 3.7927043E-01  1.1178917E+01
 3.8244423E-01  1.1042565E+01
 3.8561806E-01  1.1018600E+01
 3.8879186E-01  1.1012995E+01
 3.9196569E-01  1.0966824E+01
 3.9513949E-01  1.0810631E+01
 3.9831328E-01  1.0682178E+01
 4.0148711E-01  1.0861772E+01
 4.0466091E-01  1.0931020E+01
 4.0783474E-01  1.0987121E+01
 4.1100854E-01  1.1367185E+01
 4.1418236E-01  1.0794212E+01
 4.1735616E-01  1.0692080E+01
 4.2052996E-01  1.0673261E+01
 4.2370379E-01  1.0760386E+01
 4.2687759E-01  1.0773337E+01
 4.3005142E-01  1.0660013E+01
 4.3322521E-01  1.0538157E+01
 4.3639904E-01  1.0463356E+01
 4.3957284E-01  1.0673583E+01
 4.4274664E-01  1.0768493E+01
 4.4592047E-01  1.0592113E+01
 4.4909427E-01  1.0396409E+01
 4.5226809E-01  1.0268888E+01
 4.5544189E-01  1.0395277E+01
 4.5861572E-01  1.0495054E+01
 4.6178952E-01  1.0463190E+01
 4.6496332E-01  1.0373924E+01
 4.6813715E-01  1.0360328E+01
 4.7131094E-01  1.0445101E+01
 4.7448477E-01  1.0834277E+01
 4.7765857E-01  1.0670540E+01
 4.8083240E-01  1.0437575E+01
 4.8400620E-01  1.0409672E+01
 4.8717999E-01  1.0376987E+01
 4.9035382E-01  1.0244627E+01
 4.9352762E-01  1.0198835E+01
 4.9670145E-01  1.0201896E+01
 4.9987525E-01  1.0224901E+01
 5.0304908E-01  1.0231079E+01
 5.0622290E-01  1.0292818E+01
 5.0939667E-01  1.0318007E+01
 5.1257050E-01  1.0275718E+01
 5.1574433E-01  1.0310375E+01
 5.1891810E-01  1.0228306E+01
 5.2209193E-01  1.0142204E+01
 5.2526575E-01  1.0180279E+01
 5.2843958E-01  1.0274579E+01
 5.3161335E-01  1.0661606E+01
 5.3478718E-01  1.1343296E+01
 5.3796101E-01  1.1233490E+01
 5.4113477E-01  1.0910810E+01
 5.4430860E-01  1.0828942E+01
 5.4748243E-01  1.0615503E+01
 5.5065626E-01  1.0543452E+01
 5.5383003E-01  1.0571166E+01
 5.5700386E-01  1.0333346E+01
 5.6017768E-01  1.0375594E+01
 5.6335145E-01  1.0712610E+01
 5.6652528E-01  1.0164713E+01
 5.6969911E-01  1.0171947E+01
 5.7287294E-01  1.0184614E+01
 5.7604671E-01  1.0145813E+01
 5.7922053E-01  1.0086962E+01
 5.8239436E-01  9.9052010E+00
 5.8556813E-01  9.9632406E+00
 5.8874196E-01  1.0018454E+01
 5.9191579E-01  1.0268568E+01
 5.9508961E-01  1.0872926E+01
 5.9826338E-01  1.0406558E+01
 6.0143721E-01  1.0008190E+01
 6.0461104E-01  9.9354038E+00
 6.0778481E-01  9.9305162E+00
 6.1095864E-01  9.9570684E+00
 6.1413246E-01  9.9107494E+00
 6.1730629E-01  9.9453430E+00
 6.2048006E-01  1.0016848E+01
 6.2365389E-01  9.9944553E+00
 6.2682772E-01  9.9765968E+00
 6.3000149E-01  9.9545546E+00
 6.3317531E-01  9.8668098E+00
 6.3634914E-01  9.8990250E+00
 6.3952297E-01  9.8372488E+00
 6.4269674E-01  9.8344555E+00
 6.4587057E-01  9.8094807E+00
 6.4904439E-01  9.9059610E+00
 6.5221816E-01  9.9153957E+00
 6.5539199E-01  9.9611168E+00
 6.5856582E-01  9.9043856E+00
 6.6173965E-01  9.8256655E+00
 6.6491342E-01  9.8184519E+00
 6.6808724E-01  9.7946959E+00
 6.7126107E-01  9.8443327E+00
 6.7443484E-01  9.9215870E+00
 6.7760867E-01  9.9470987E+00
 6.8078250E-01  9.8064842E+00
 6.8395633E-01  9.8123169E+00
 6.8713009E-01  1.0028318E+01
 6.9030392E-01  1.0002100E+01
 6.9347775E-01  9.8810072E+00
 6.9665152E-01  9.8818607E+00
 6.9982535E-01  9.9140453E+00
 7.0299917E-01  9.8952904E+00
 7.0617300E-01  9.9549322E+00
 7.0934677E-01  1.0029350E+01
 7.1252060E-01  9.9046211E+00
 7.1569443E-01  9.8291512E+00
 7.1886820E-01  9.7981787E+00
 7.2204202E-01  9.7849417E+00
 7.2521585E-01  9.8102045E+00
 7.2838968E-01  9.8914862E+00
 7.3156345E-01  9.8173351E+00
 7.3473728E-01  9.8654270E+00
 7.3791111E-01  9.8495998E+00
 7.4108487E-01  9.8102980E+00
 7.4425870E-01  9.7599974E+00
 7.4743253E-01  9.7543640E+00
 7.5060636E-01  9.7550135E+00
 7.5378013E-01  9.7681255E+00
 7.5695395E-01  9.7533550E+00
 7.6012778E-01  9.7381849E+00
 7.6330155E-01  9.6748486E+00
 7.6647538E-01  9.6263781E+00
 7.6964921E-01  9.7551622E+00
 7.7282304E-01  1.0063109E+01
 7.7599680E-01  1.0164695E+01
 7.7917063E-01  9.9688349E+00
 7.8234446E-01  9.8036480E+00
 7.8551823E-01  9.7188387E+00
 7.8869206E-01  9.7496929E+00
 7.9186589E-01  1.0064616E+01
 7.9503971E-01  9.9746275E+00
 7.9821348E-01  9.7779989E+00
 8.0138731E-01  9.6764193E+00
 8.0456114E-01  9.6875572E+00
 8.0773491E-01  9.7048559E+00
 8.1090873E-01  9.6662769E+00
 8.1408256E-01  9.6190443E+00
 8.1725639E-01  9.6053400E+00
 8.2043016E-01  9.6143427E+00
 8.2360399E-01  9.6613226E+00
 8.2677782E-01  9.6649790E+00
 8.2995158E-01  9.6904058E+00
 8.3312541E-01  9.6719913E+00
 8.3629924E-01  9.6812344E+00
 8.3947307E-01  9.6723137E+00
 8.4264684E-01  9.5631418E+00
 8.4582067E-01  9.6545115E+00
 8.4899449E-01  9.6568127E+00
 8.5216826E-01  9.6662903E+00
 8.5534209E-01  9.9659262E+00
 8.5851592E-01  9.9031105E+00
 8.6168975E-01  9.6886787E+00
 8.6486351E-01  9.6859531E+00
 8.6803734E-01  9.6820488E+00
 8.7121117E-01  9.6912632E+00
 8.7438494E-01  9.6650410E+00
 8.7755877E-01  9.8108387E+00
 8.8073260E-01  9.8465500E+00
 8.8390642E-01  9.7840357E+00
 8.8708019E-01  9.7044296E+00
 8.9025402E-01  9.6793547E+00
 8.9342785E-01  9.6014290E+00
 8.9660162E-01  9.6082859E+00
 8.9977545E-01  9.7279043E+00
 9.0294927E-01  9.7717104E+00
 9.0612310E-01  9.8106213E+00
 9.0929687E-01  9.7528992E+00
 9.1247070E-01  9.6518059E+00
 9.1564453E-01  9.7302485E+00
 9.1881830E-01  9.6299133E+00
 9.2199212E-01  9.4950323E+00
 9.2516595E-01  9.5717688E+00
 9.2833978E-01  9.6757889E+00
 9.3151355E-01  9.6783390E+00
 9.3468738E-01  9.6439362E+00
 9.3786120E-01  9.5730371E+00
 9.4103497E-01  9.5893583E+00
 9.4420880E-01  9.6826630E+00
 9.4738263E-01  9.6497116E+00
 9.5055646E-01  9.5747814E+00
 9.5373023E-01  9.5897417E+00
 9.5690405E-01  9.6862030E+00
 9.6007788E-01  9.6593857E+00
 9.6325165E-01  9.7320528E+00
 9.6642548E-01  9.9113512E+00
 9.6959931E-01  9.8245354E+00
 9.7277313E-01  9.6879883E+00
 9.7594690E-01  9.6582918E+00
 9.7912073E-01  9.6513481E+00
 9.8229456E-01  9.6636553E+00
 9.8546833E-01  9.5716677E+00
 9.8864216E-01  9.5242691E+00
 9.9181598E-01  9.6685772E+00
 9.9498981E-01  9.6040850E+00
 9.9816358E-01  9.5766993E+00
 1.0013374E+00  9.5595160E+00
 1.0045112E+00  9.6548796E+00
 1.0076851E+00  9.6223898E+00
 1.0108589E+00  1.0518342E+01
 1.0140326E+00  1.1303123E+01
 1.0172064E+00  1.0312583E+01
 1.0203803E+00  9.6821575E+00
 1.0235541E+00  9.8736887E+00
 1.0267279E+00  9.9403877E+00
 1.0299017E+00  9.6912203E+00
 1.0330756E+00  9.8724070E+00
 1.0362493E+00  9.8468323E+00
 1.0394231E+00  9.6238966E+00
 1.0425969E+00  9.5958776E+00
 1.0457708E+00  9.6282930E+00
 1.0489446E+00  9.5479755E+00
 1.0521184E+00  9.5465698E+00
 1.0552922E+00  9.5798826E+00
 1.0584660E+00  9.6058607E+00
 1.0616398E+00  9.5810738E+00
 1.0648136E+00  9.5976124E+00
 1.0679874E+00  9.6140451E+00
 1.0711613E+00  9.5985966E+00
 1.0743351E+00  9.4774990E+00
 1.0775089E+00  9.4943581E+00
 1.0806826E+00  9.7895823E+00
 1.0838565E+00  1.0274404E+01
 1.0870303E+00  9.9894238E+00
 1.0902041E+00  9.6476831E+00
 1.0933779E+00  9.6295958E+00
 1.0965518E+00  9.6103773E+00
 1.0997256E+00  9.6160955E+00
 1.1028993E+00  9.6043129E+00
 1.1060731E+00  9.8470449E+00
 1.1092470E+00  9.7495747E+00
 1.1124208E+00  9.5815325E+00
 1.1155946E+00  9.6297550E+00
 1.1187685E+00  9.6054668E+00
 1.1219423E+00  9.6068516E+00
 1.1251160E+00  9.4986763E+00
 1.1282898E+00  9.4816675E+00
 1.1314636E+00  9.5192375E+00
 1.1346375E+00  9.5248108E+00
 1.1378113E+00  9.5515471E+00
 1.1409851E+00  9.5801449E+00
 1.1441590E+00  9.5686007E+00
 1.1473327E+00  9.5208950E+00
 1.1505065E+00  9.5172949E+00
 1.1536803E+00  9.5545168E+00
 1.1568542E+00  9.5628777E+00
 1.1600280E+00  9.7197666E+00
 1.1632018E+00  9.8111477E+00
 1.1663756E+00  9.6773176E+00
 1.1695493E+00  9.5057240E+00
 1.1727232E+00  9.5559902E+00
 1.1758970E+00  9.7750702E+00
 1.1790708E+00  9.8476763E+00
 1.1822447E+00  9.5593195E+00
 1.1854185E+00  9.5798426E+00
 1.1885923E+00  9.5952091E+00
 1.1917660E+00  9.5884981E+00
 1.1949399E+00  9.5720816E+00
 1.1981137E+00  9.4817114E+00
 1.2012875E+00  9.5688391E+00
 1.2044613E+00  9.6588020E+00
 1.2076352E+00  9.8363705E+00
 1.2108090E+00  1.0127960E+01
 1.2139827E+00  1.0540163E+01
 1.2171565E+00  1.1290024E+01
 1.2203304E+00  1.0601913E+01
 1.2235042E+00  9.7455187E+00
 1.2266780E+00  9.6243649E+00
 1.2298518E+00  9.5673122E+00
 1.2330257E+00  9.4659328E+00
 1.2361994E+00  9.5709047E+00
 1.2393732E+00  9.6185503E+00
 1.2425470E+00  9.5312471E+00
 1.2457209E+00  9.6439047E+00
 1.2488947E+00  9.6785774E+00
 1.2520685E+00  9.6332865E+00
 1.2552423E+00  9.5950499E+00
 1.2584161E+00  9.5696812E+00
 1.2615899E+00  9.5208063E+00
 1.2647637E+00  9.5269194E+00
 1.2679375E+00  9.5882931E+00
 1.2711114E+00  9.5839834E+00
 1.2742852E+00  9.6049557E+00
 1.2774590E+00  9.5421839E+00
 1.2806327E+00  9.5171852E+00
 1.2838066E+00  9.5255604E+00
 1.2869804E+00  9.7012558E+00
 1.2901542E+00  9.7268829E+00
 1.2933280E+00  9.6086121E+00
 1.2965019E+00  9.6287756E+00
 1.2996757E+00  9.6050482E+00
 1.3028494E+00  9.5322199E+00
 1.3060232E+00  9.5322638E+00
 1.3091971E+00  9.5283098E+00
 1.3123709E+00  9.7359505E+00
 1.3155447E+00  1.0039046E+01
 1.3187186E+00  9.9634609E+00
 1.3218924E+00  9.6548481E+00
 1.3250661E+00  9.6154385E+00
 1.3282399E+00  9.5698719E+00
 1.3314137E+00  9.5547142E+00
 1.3345876E+00  9.5912762E+00
 1.3377614E+00  9.5804529E+00
 1.3409352E+00  9.5777254E+00
 1.3441091E+00  9.5915890E+00
 1.3472828E+00  9.5915546E+00
 1.3504566E+00  9.5307827E+00
 1.3536304E+00  9.5463562E+00
 1.3568043E+00  9.5360022E+00
 1.3599781E+00  9.5069103E+00
 1.3631519E+00  9.5312586E+00
 1.3663257E+00  9.6133480E+00
 1.3694994E+00  9.5026827E+00
 1.3726733E+00  9.4210281E+00
 1.3758471E+00  9.3816547E+00
 1.3790209E+00  9.3825598E+00
 1.3821948E+00  9.4456072E+00
 1.3853686E+00  9.4947329E+00
 1.3885424E+00  9.4857187E+00
 1.3917161E+00  9.5392780E+00
 1.3948900E+00  9.5873976E+00
 1.3980638E+00  9.5881901E+00
 1.4012376E+00  9.5945454E+00
 1.4044114E+00  9.5413828E+00
 1.4075853E+00  9.4972591E+00
 1.4107591E+00  9.4654827E+00
 1.4139328E+00  9.4804153E+00
 1.4171066E+00  9.5096989E+00
 1.4202805E+00  9.5628681E+00
 1.4234543E+00  9.5562687E+00
 1.4266281E+00  9.5297127E+00
 1.4298019E+00  9.4826984E+00
 1.4329758E+00  9.5433025E+00
 1.4361495E+00  9.5225477E+00
 1.4393233E+00  9.4965687E+00
 1.4424971E+00  9.4907494E+00
 1.4456710E+00  9.5077868E+00
 1.4488448E+00  9.5391016E+00
 1.4520186E+00  9.5388517E+00
 1.4551924E+00  9.4854698E+00
 1.4583662E+00  9.4362068E+00
 1.4615400E+00  9.5294819E+00
 1.4647138E+00  9.6105108E+00
 1.4678876E+00  9.5406036E+00
 1.4710615E+00  9.4357882E+00
 1.4742353E+00  9.4579086E+00
 1.4774091E+00  9.4651890E+00
 1.4805828E+00  9.5177994E+00
 1.4837567E+00  9.5202637E+00
 1.4869305E+00  9.5140285E+00
 1.4901043E+00  9.5128460E+00
 1.4932781E+00  9.4547815E+00
 1.4964520E+00  9.4864483E+00
 1.4996258E+00  9.5102158E+00
 1.5027995E+00  9.4786167E+00
 1.5059733E+00  9.5199556E+00
 1.5091472E+00  9.6271114E+00
 1.5123210E+00  9.5476608E+00
 1.5154948E+00  9.4309235E+00
 1.5186687E+00  9.4765940E+00
 1.5218425E+00  9.4849644E+00
 1.5250162E+00  9.5500517E+00
 1.5281900E+00  9.5437946E+00
 1.5313638E+00  9.4817839E+00
 1.5345377E+00  9.4345236E+00
 1.5377115E+00  9.4195118E+00
 1.5408853E+00  9.4296083E+00
 1.5440592E+00  9.4909830E+00
 1.5472329E+00  9.5793982E+00
 1.5504067E+00  9.6613016E+00
 1.5535805E+00  9.6022682E+00
 1.5567544E+00  9.5697832E+00
 1.5599282E+00  9.9592714E+00
 1.5631020E+00  9.8239555E+00
 1.5662758E+00  9.6684742E+00
 1.5694495E+00  9.5975008E+00
 1.5726234E+00  9.5246258E+00
 1.5757972E+00  9.5131712E+00
 1.5789710E+00  9.4680834E+00
 1.5821449E+00  9.4827509E+00
 1.5853187E+00  9.5354414E+00
 1.5884925E+00  9.5684471E+00
 1.5916662E+00  9.5138798E+00
 1.5948400E+00  9.4969482E+00
 1.5980139E+00  9.4878359E+00
 1.6011877E+00  9.4886360E+00
 1.6043615E+00  9.4887323E+00
 1.6075354E+00  9.6811094E+00
 1.6107092E+00  1.0135026E+01
 1.6138829E+00  1.0082270E+01
 1.6170567E+00  9.8231888E+00
 1.6202306E+00  9.9744329E+00
 1.6234044E+00  1.0350393E+01
 1.6265782E+00  9.9342871E+00
 1.6297520E+00  9.5298262E+00
 1.6329259E+00  9.5251169E+00
 1.6360997E+00  9.5257168E+00
 1.6392734E+00  9.5004578E+00
 1.6424472E+00  9.4423790E+00
 1.6456211E+00  9.4834375E+00
 1.6487949E+00  9.5361595E+00
 1.6519687E+00  9.4829826E+00
 1.6551425E+00  9.4917946E+00
 1.6583164E+00  9.5542831E+00
 1.6614901E+00  9.7287264E+00
 1.6646639E+00  9.6514568E+00
 1.6678377E+00  9.7134657E+00
 1.6710116E+00  1.0281767E+01
 1.6741854E+00  1.0464274E+01
 1.6773592E+00  1.0552358E+01
 1.6805331E+00  1.0211441E+01
 1.6837068E+00  1.0013531E+01
 1.6868806E+00  9.8101482E+00
 1.6900544E+00  9.5496187E+00
 1.6932282E+00  9.4538679E+00
 1.6964021E+00  9.5758657E+00
 1.6995759E+00  9.8430023E+00
 1.7027497E+00  9.9149170E+00
 1.7059234E+00  9.9008703E+00
 1.7090973E+00  1.0376665E+01
 1.7122711E+00  1.0050092E+01
 1.7154449E+00  9.5302534E+00
 1.7186188E+00  9.5104008E+00
 1.7217926E+00  9.4908485E+00
 1.7249664E+00  9.5006351E+00
 1.7281401E+00  9.6625557E+00
 1.7313139E+00  9.7579250E+00
 1.7344878E+00  9.6347313E+00
 1.7376616E+00  9.5909491E+00
 1.7408354E+00  9.5621452E+00
 1.7440093E+00  9.5060177E+00
 1.7471831E+00  9.4921732E+00
 1.7503568E+00  9.4308882E+00
 1.7535306E+00  9.4561853E+00
 1.7567044E+00  9.5026522E+00
 1.7598783E+00  9.4934731E+00
 1.7630521E+00  9.5694761E+00
 1.7662259E+00  9.4203873E+00
 1.7693998E+00  9.3783960E+00
 1.7725735E+00  9.5065079E+00
 1.7757473E+00  9.5158577E+00
 1.7789211E+00  9.5272846E+00
 1.7820950E+00  9.5196905E+00
 1.7852688E+00  9.5034275E+00
 1.7884426E+00  9.4862957E+00
 1.7916164E+00  9.5060568E+00
 1.7947901E+00  9.4605618E+00
 1.7979640E+00  9.4843731E+00
 1.8011378E+00  9.4871750E+00
 1.8043116E+00  9.5361128E+00
 1.8074855E+00  9.5316696E+00
 1.8106593E+00  9.5123549E+00
 1.8138331E+00  9.5029669E+00
 1.8170068E+00  9.4691420E+00
 1.8201807E+00  9.4511271E+00
 1.8233545E+00  9.4582577E+00
 1.8265283E+00  9.4610415E+00
 1.8297021E+00  9.5807037E+00
 1.8328760E+00  9.5137615E+00
 1.8360498E+00  9.4709702E+00
 1.8392235E+00  9.4377003E+00
 1.8423973E+00  9.4399471E+00
 1.8455712E+00  9.4898005E+00
 1.8487450E+00  9.4981346E+00
 1.8519188E+00  9.6366005E+00
 1.8550926E+00  9.7168226E+00
 1.8582665E+00  9.7942858E+00
 1.8614402E+00  1.0162649E+01
 1.8646140E+00  1.0603713E+01
 1.8677878E+00  1.0447366E+01
 1.8709617E+00  9.7889748E+00
 1.8741355E+00  9.5891476E+00
 1.8773093E+00  9.5297642E+00
 1.8804832E+00  9.4432402E+00
 1.8836569E+00  9.5189629E+00
 1.8868307E+00  9.5784426E+00
 1.8900045E+00  9.6312876E+00
 1.8931783E+00  9.6398687E+00
 1.8963522E+00  9.5681791E+00
 1.8995260E+00  9.6001053E+00
 1.9026998E+00  9.5640888E+00
 1.9058735E+00  9.5955429E+00
 1.9090474E+00  9.7670450E+00
 1.9122212E+00  9.7565937E+00
 1.9153950E+00  9.5997906E+00
 1.9185688E+00  9.5608244E+00
 1.9217427E+00  9.6483469E+00
 1.9249165E+00  9.6278400E+00
 1.9280902E+00  9.4970331E+00
 1.9312640E+00  9.6519985E+00
 1.9344379E+00  1.0205174E+01
 1.9376117E+00  1.0100556E+01
 1.9407855E+00  9.6701126E+00
 1.9439594E+00  9.5483646E+00
 1.9471332E+00  9.4734154E+00
 1.9503069E+00  9.4510708E+00
 1.9534807E+00  9.4805346E+00
 1.9566545E+00  9.4951105E+00
 1.9598284E+00  9.4953957E+00
 1.9630022E+00  9.5328712E+00
 1.9661760E+00  9.5369368E+00
 1.9693499E+00  9.4986315E+00
 1.9725236E+00  9.6172094E+00
 1.9756974E+00  9.7028027E+00
 1.9788712E+00  9.6782980E+00
 1.9820451E+00  9.5457888E+00
 1.9852189E+00  9.4920473E+00
 1.9883927E+00  9.5323429E+00
 1.9915665E+00  9.5378332E+00
 1.9947402E+00  9.5504971E+00
 1.9979141E+00  9.5320024E+00
 2.0010879E+00  9.5224075E+00
 2.0042617E+00  9.4921217E+00
 2.0074356E+00  9.4386692E+00
 2.0106094E+00  9.4439735E+00
 2.0137832E+00  9.4265966E+00
 2.0169570E+00  9.5020275E+00
 2.0201309E+00  9.5215235E+00
 2.0233047E+00  9.5461588E+00
 2.0264783E+00  9.5606623E+00
 2.0296521E+00  9.4801474E+00
 2.0328259E+00  9.7540293E+00
 2.0359998E+00  1.0028895E+01
 2.0391736E+00  9.7096758E+00
 2.0423474E+00  9.5195961E+00
 2.0455213E+00  9.5648508E+00
 2.0486951E+00  9.5211954E+00
 2.0518689E+00  9.6819134E+00
 2.0550427E+00  9.7109585E+00
 2.0582166E+00  9.6309271E+00
 2.0613904E+00  9.7569685E+00
 2.0645642E+00  9.8982286E+00
 2.0677381E+00  9.8905773E+00
 2.0709116E+00  9.7707834E+00
 2.0740855E+00  9.6038389E+00
 2.0772593E+00  9.5603628E+00
 2.0804331E+00  9.5026102E+00
 2.0836070E+00  9.7026415E+00
 2.0867808E+00  9.7674570E+00
 2.0899546E+00  9.7348356E+00
 2.0931284E+00  9.6845121E+00
 2.0963023E+00  9.7714825E+00
 2.0994761E+00  9.6621017E+00
 2.1026499E+00  9.5624819E+00
 2.1058238E+00  9.5503483E+00
 2.1089976E+00  9.4340754E+00
 2.1121714E+00  9.4467545E+00
 2.1153450E+00  9.4994659E+00
 2.1185188E+00  9.4625616E+00
 2.1216927E+00  9.5431137E+00
 2.1248665E+00  9.5103912E+00
 2.1280403E+00  9.5209789E+00
 2.1312141E+00  9.5348177E+00
 2.1343880E+00  9.6499786E+00
 2.1375618E+00  9.6626844E+00
 2.1407356E+00  9.5568943E+00
 2.1439095E+00  9.4729385E+00
 2.1470833E+00  9.5014677E+00
 2.1502571E+00  9.5215874E+00
 2.1534309E+00  9.5829096E+00
 2.1566048E+00  9.6567392E+00
 2.1597784E+00  9.6291399E+00
 2.1629522E+00  9.5559311E+00
 2.1661260E+00  9.5422592E+00
 2.1692998E+00  9.5517254E+00
 2.1724737E+00  9.5725975E+00
 2.1756475E+00  9.5461807E+00
 2.1788213E+00  9.5211678E+00
 2.1819952E+00  9.7117643E+00
 2.1851690E+00  1.0185292E+01
 2.1883428E+00  1.0057588E+01
 2.1915166E+00  9.5708485E+00
 2.1946905E+00  9.4464941E+00
 2.1978643E+00  9.5126781E+00
 2.2010381E+00  9.6039944E+00
 2.2042117E+00  9.6523714E+00
 2.2073855E+00  9.7039995E+00
 2.2105594E+00  9.7949409E+00
 2.2137332E+00  9.7240582E+00
 2.2169070E+00  9.6617727E+00
 2.2200809E+00  9.5836601E+00
 2.2232547E+00  9.5800228E+00
 2.2264285E+00  9.6055450E+00
 2.2296023E+00  9.7125988E+00
 2.2327762E+00  1.0014096E+01
 2.2359500E+00  1.0189939E+01
 2.2391238E+00  9.7125635E+00
 2.2422976E+00  9.4555588E+00
 2.2454715E+00  9.4750423E+00
 2.2486451E+00  9.5564470E+00
 2.2518189E+00  9.5224142E+00
 2.2549927E+00  9.5046778E+00
 2.2581666E+00  9.5360641E+00
 2.2613404E+00  9.5041246E+00
 2.2645142E+00  9.4771576E+00
 2.2676880E+00  9.4957895E+00
 2.2708619E+00  9.5030661E+00
 2.2740357E+00  9.5243435E+00
 2.2772095E+00  9.5485620E+00
 2.2803833E+00  9.5411634E+00
 2.2835572E+00  9.5214081E+00
 2.2867310E+00  9.5688820E+00
 2.2899048E+00  9.5886288E+00
 2.2930784E+00  9.5580788E+00
 2.2962523E+00  9.5949697E+00
 2.2994261E+00  9.5729036E+00
 2.3025999E+00  9.5621567E+00
 2.3057737E+00  9.5208015E+00
 2.3089476E+00  9.5329943E+00
 2.3121214E+00  9.5789537E+00
 2.3152952E+00  9.5304317E+00
 2.3184690E+00  9.4450645E+00
 2.3216429E+00  9.4900465E+00
 2.3248167E+00  9.5397568E+00
 2.3279905E+00  9.5204897E+00
 2.3311644E+00  9.5640068E+00
 2.3343382E+00  9.7457571E+00
 2.3375118E+00  9.7594395E+00
 2.3406856E+00  9.7000103E+00
 2.3438594E+00  9.5937080E+00
 2.3470333E+00  9.6410580E+00
 2.3502071E+00  9.6545734E+00
 2.3533809E+00  9.7281294E+00
 2.3565547E+00  9.6311827E+00
 2.3597286E+00  9.4923964E+00
 2.3629024E+00  9.5404663E+00
 2.3660762E+00  9.5006905E+00
 2.3692501E+00  9.4664564E+00
 2.3724239E+00  9.4788151E+00
 2.3755977E+00  9.5772200E+00
 2.3787715E+00  9.8104124E+00
 2.3819451E+00  1.0076303E+01
 2.3851190E+00  1.0459224E+01
 2.3882928E+00  1.0098421E+01
 2.3914666E+00  9.5861015E+00
 2.3946404E+00  9.4966612E+00
 2.3978143E+00  9.4443893E+00
 2.4009881E+00  9.5178175E+00
 2.4041619E+00  9.5747099E+00
 2.4073358E+00  9.6534719E+00
 2.4105096E+00  9.5970545E+00
 2.4136834E+00  9.8122473E+00
 2.4168572E+00  9.8596354E+00
 2.4200311E+00  9.6230011E+00
 2.4232049E+00  9.5376959E+00
 2.4263785E+00  9.5195694E+00
 2.4295523E+00  9.5160074E+00
 2.4327261E+00  9.5195999E+00
 2.4359000E+00  9.4985867E+00
 2.4390738E+00  9.4526463E+00
 2.4422476E+00  9.4512196E+00
 2.4454215E+00  9.5289068E+00
 2.4485953E+00  9.5361223E+00
 2.4517691E+00  9.6447477E+00
 2.4549429E+00  9.7187614E+00
 2.4581168E+00  9.6333494E+00
 2.4612906E+00  9.5810633E+00
 2.4644644E+00  9.5862808E+00
 2.4676383E+00  9.5395670E+00
 2.4708121E+00  9.5316448E+00
 2.4739857E+00  9.5442734E+00
 2.4771595E+00  9.5543699E+00
 2.4803333E+00  9.5795612E+00
 2.4835072E+00  9.5979738E+00
 2.4866810E+00  9.5550718E+00
 2.4898548E+00  9.5551252E+00
 2.4930286E+00  9.6279488E+00
 2.4962025E+00  9.7234888E+00
 2.4993763E+00  9.7212105E+00
 2.5025501E+00  9.5691481E+00
 2.5057240E+00  9.6474457E+00
 2.5088978E+00  9.6847925E+00
 2.5120716E+00  9.6463022E+00
 2.5152454E+00  9.5587530E+00
 2.5184190E+00  9.5154438E+00
 2.5215929E+00  9.6131821E+00
 2.5247667E+00  9.8772678E+00
 2.5279405E+00  9.8239918E+00
 2.5311143E+00  9.5919752E+00
 2.5342882E+00  9.5544138E+00
 2.5374620E+00  9.5478745E+00
 2.5406358E+00  9.6492081E+00
 2.5438097E+00  9.6219225E+00
 2.5469835E+00  9.5253019E+00
 2.5501573E+00  9.5448399E+00
 2.5533311E+00  9.5475016E+00
 2.5565050E+00  9.5989380E+00
 2.5596788E+00  9.7032099E+00
 2.5628524E+00  9.8533688E+00
 2.5660262E+00  9.6865015E+00
 2.5692000E+00  9.7263746E+00
 2.5723739E+00  1.0199421E+01
 2.5755477E+00  9.9963093E+00
 2.5787215E+00  9.5825109E+00
 2.5818954E+00  9.5882397E+00
 2.5850692E+00  9.5533218E+00
 2.5882430E+00  9.5489674E+00
 2.5914168E+00  9.6329069E+00
 2.5945907E+00  9.6097383E+00
 2.5977645E+00  9.6559038E+00
 2.6009383E+00  9.7169561E+00
 2.6041121E+00  9.6214466E+00
 2.6072857E+00  9.5960007E+00
 2.6104596E+00  9.6588249E+00
 2.6136334E+00  9.7739439E+00
 2.6168072E+00  9.9088202E+00
 2.6199811E+00  9.8128300E+00
 2.6231549E+00  9.7462416E+00
 2.6263287E+00  9.6855459E+00
 2.6295025E+00  9.6413736E+00
 2.6326764E+00  9.6237383E+00
 2.6358502E+00  9.5827351E+00
 2.6390240E+00  9.5919247E+00
 2.6421978E+00  9.5858154E+00
 2.6453717E+00  9.6589212E+00
 2.6485455E+00  9.7901392E+00
 2.6517191E+00  9.7695570E+00
 2.6548929E+00  9.6001024E+00
 2.6580667E+00  9.5670099E+00
 2.6612406E+00  9.5866652E+00
 2.6644144E+00  9.7024002E+00
 2.6675882E+00  9.5798607E+00
 2.6707621E+00  9.5378017E+00
 2.6739359E+00  9.6338854E+00
 2.6771097E+00  9.7038431E+00
 2.6802835E+00  9.6825552E+00
 2.6834574E+00  9.7441759E+00
 2.6866312E+00  9.9308290E+00
 2.6898050E+00  1.0213156E+01
 2.6929789E+00  9.8807182E+00
 2.6961524E+00  9.6519728E+00
 2.6993263E+00  9.9027920E+00
 2.7025001E+00  9.8766584E+00
 2.7056739E+00  9.5931988E+00
 2.7088478E+00  9.6772585E+00
 2.7120216E+00  9.8426352E+00
 2.7151954E+00  9.9207211E+00
 2.7183692E+00  9.6405706E+00
 2.7215431E+00  9.5930634E+00
 2.7247169E+00  9.6382570E+00
 2.7278907E+00  9.6143665E+00
 2.7310646E+00  9.6253214E+00
 2.7342384E+00  9.6043768E+00
 2.7374122E+00  9.7560110E+00
 2.7405858E+00  9.7444000E+00
 2.7437596E+00  9.7253561E+00
 2.7469335E+00  9.7219076E+00
 2.7501073E+00  9.6235790E+00
 2.7532811E+00  9.5781260E+00
 2.7564549E+00  9.5300207E+00
 2.7596288E+00  9.5522680E+00
 2.7628026E+00  9.5345659E+00
 2.7659764E+00  9.5459709E+00
 2.7691503E+00  9.5246344E+00
 2.7723241E+00  9.5345020E+00
 2.7754979E+00  9.5429192E+00
 2.7786717E+00  9.5373535E+00
 2.7818456E+00  9.5545559E+00
 2.7850192E+00  9.5823030E+00
 2.7881930E+00  9.6141367E+00
 2.7913668E+00  9.6032171E+00
 2.7945406E+00  9.6171942E+00
 2.7977145E+00  9.6448212E+00
 2.8008883E+00  9.5973492E+00
 2.8040621E+00  9.5406208E+00
 2.8072360E+00  9.6686897E+00
 2.8104098E+00  9.8503017E+00
 2.8135836E+00  9.7594738E+00
 2.8167574E+00  9.5509386E+00
 2.8199313E+00  9.5694313E+00
 2.8231051E+00  9.5600710E+00
 2.8262789E+00  9.5404844E+00
 2.8294525E+00  9.5720110E+00
 2.8326263E+00  9.5629883E+00
 2.8358002E+00  9.5808115E+00
 2.8389740E+00  9.5720387E+00
 2.8421478E+00  9.5411825E+00
 2.8453217E+00  9.5300846E+00
 2.8484955E+00  9.6019249E+00
 2.8516693E+00  9.6501751E+00
 2.8548431E+00  9.6430149E+00
 2.8580170E+00  9.5958147E+00
 2.8611908E+00  9.5651131E+00
 2.8643646E+00  9.5657587E+00
 2.8675385E+00  9.5198145E+00
 2.8707123E+00  9.5502462E+00
 2.8738859E+00  9.6188431E+00
 2.8770597E+00  9.6725788E+00
 2.8802335E+00  9.6271801E+00
 2.8834074E+00  9.7173834E+00
 2.8865812E+00  9.7350550E+00
 2.8897550E+00  9.6306486E+00
 2.8929288E+00  9.5569839E+00
 2.8961027E+00  9.6135960E+00
 2.8992765E+00  9.7671013E+00
 2.9024503E+00  9.8573446E+00
 2.9056242E+00  9.8016472E+00
 2.9087980E+00  9.7448111E+00
 2.9119718E+00  9.9881659E+00
 2.9151456E+00  1.0057704E+01
 2.9183192E+00  9.8500700E+00
 2.9214931E+00  9.6325340E+00
 2.9246669E+00  9.5779800E+00
 2.9278407E+00  9.5813828E+00
 2.9310145E+00  9.5519762E+00
 2.9341884E+00  9.5859365E+00
 2.9373622E+00  9.5991402E+00
 2.9405360E+00  9.5904570E+00
 2.9437099E+00  9.5412054E+00
 2.9468837E+00  9.5230989E+00
 2.9500575E+00  9.6832228E+00
 2.9532313E+00  9.8144979E+00
 2.9564052E+00  9.7653084E+00
 2.9595790E+00  9.6705160E+00
 2.9627526E+00  9.6832619E+00
 2.9659264E+00  9.6358137E+00
 2.9691002E+00  9.6194725E+00
 2.9722741E+00  9.6412592E+00
 2.9754479E+00  9.7167158E+00
 2.9786217E+00  9.7825832E+00
 2.9817955E+00  9.7561893E+00
 2.9849694E+00  9.6792107E+00
 2.9881432E+00  9.7746143E+00
 2.9913170E+00  9.9278030E+00
 2.9944909E+00  9.8833704E+00
 2.9976647E+00  9.8537359E+00
 3.0008385E+00  9.9406414E+00
 3.0040123E+00  1.0048618E+01
 3.0071859E+00  1.0328220E+01
 3.0103598E+00  1.0125865E+01
 3.0135336E+00  9.8065834E+00
 3.0167074E+00  9.6813383E+00
 3.0198812E+00  9.6263466E+00
 3.0230551E+00  9.5110550E+00
 3.0262289E+00  9.6054907E+00
 3.0294027E+00  9.7281513E+00
 3.0325766E+00  9.8251686E+00
 3.0357504E+00  9.6874104E+00
 3.0389242E+00  9.5564613E+00
 3.0420980E+00  9.5760756E+00
 3.0452719E+00  9.5743570E+00
 3.0484457E+00  9.5796900E+00
 3.0516193E+00  9.5793791E+00
 3.0547931E+00  9.5869846E+00
 3.0579669E+00  9.6154909E+00
 3.0611408E+00  9.6171303E+00
 3.0643146E+00  9.6318617E+00
 3.0674884E+00  9.6621695E+00
 3.0706623E+00  9.7083826E+00
 3.0738361E+00  9.8019228E+00
 3.0770099E+00  9.6615696E+00
 3.0801837E+00  9.6143932E+00
 3.0833576E+00  9.5862913E+00
 3.0865314E+00  9.5504618E+00
 3.0897052E+00  9.5303535E+00
 3.0928791E+00  9.5804548E+00
 3.0960526E+00  9.6337748E+00
 3.0992265E+00  9.7006636E+00
 3.1024003E+00  9.6488333E+00
 3.1055741E+00  9.6299133E+00
 3.1087480E+00  9.6579580E+00
 3.1119218E+00  9.6703730E+00
 3.1150956E+00  9.6370687E+00
 3.1182694E+00  9.5798569E+00
 3.1214433E+00  9.5602341E+00
 3.1246171E+00  9.5602226E+00
 3.1277909E+00  9.5305834E+00
 3.1309648E+00  9.5250082E+00
 3.1341386E+00  9.5134153E+00
 3.1373124E+00  9.5608492E+00
 3.1404860E+00  9.5442085E+00
 3.1436598E+00  9.5735979E+00
 3.1468337E+00  9.5972853E+00
 3.1500075E+00  9.5983152E+00
 3.1531813E+00  9.5843201E+00
 3.1563551E+00  9.6342487E+00
 3.1595290E+00  9.6182108E+00
 3.1627028E+00  9.5913067E+00
 3.1658766E+00  9.5824909E+00
 3.1690505E+00  9.6039076E+00
 3.1722243E+00  9.7012091E+00
 3.1753981E+00  9.7517595E+00
 3.1785719E+00  9.7044754E+00
 3.1817458E+00  9.6494427E+00
 3.1849194E+00  9.6032915E+00
 3.1880932E+00  9.6049719E+00
 3.1912670E+00  9.6027336E+00
 3.1944408E+00  9.6517658E+00
 3.1976147E+00  9.7517338E+00
 3.2007885E+00  9.7036543E+00
 3.2039623E+00  9.5672436E+00
 3.2071362E+00  9.5817089E+00
 3.2103100E+00  9.5687943E+00
 3.2134838E+00  9.5470753E+00
 3.2166576E+00  9.5704594E+00
 3.2198315E+00  9.5924559E+00
 3.2230053E+00  9.6379690E+00
 3.2261791E+00  9.6980305E+00
 3.2293527E+00  9.7133455E+00
 3.2325265E+00  9.6185303E+00
 3.2357004E+00  9.6084185E+00
 3.2388742E+00  9.6724615E+00
 3.2420480E+00  9.7196941E+00
 3.2452219E+00  9.7964258E+00
 3.2483957E+00  9.6769772E+00
 3.2515695E+00  9.6296101E+00
 3.2547433E+00  9.6749458E+00
 3.2579172E+00  9.6446190E+00
 3.2610910E+00  9.6455851E+00
 3.2642648E+00  9.7254181E+00
 3.2674387E+00  9.6833620E+00
 3.2706125E+00  9.6673756E+00
 3.2737861E+00  9.6042280E+00
 3.2769599E+00  9.5804262E+00
 3.2801337E+00  9.5996056E+00
 3.2833076E+00  9.5961275E+00
 3.2864814E+00  9.5446033E+00
 3.2896552E+00  9.5500851E+00
 3.2928290E+00  9.5744324E+00
 3.2960029E+00  9.6716270E+00
 3.2991767E+00  9.7283087E+00
 3.3023505E+00  9.6938534E+00
 3.3055243E+00  9.6302490E+00
 3.3086982E+00  9.6453848E+00
 3.3118720E+00  9.7426033E+00
 3.3150458E+00  9.7743006E+00
 3.3182194E+00  9.9731503E+00
 3.3213933E+00  1.0087181E+01
 3.3245671E+00  1.0006886E+01
 3.3277409E+00  9.7506571E+00
 3.3309147E+00  9.6450930E+00
 3.3340886E+00  9.6076689E+00
 3.3372624E+00  9.5801392E+00
 3.3404362E+00  9.6025314E+00
 3.3436100E+00  9.6774569E+00
 3.3467839E+00  9.7411127E+00
 3.3499577E+00  9.7412691E+00
 3.3531315E+00  9.7075853E+00
 3.3563054E+00  9.6889648E+00
 3.3594792E+00  9.6365356E+00
 3.3626528E+00  9.6111851E+00
 3.3658266E+00  9.5855618E+00
 3.3690004E+00  9.5788193E+00
 3.3721743E+00  9.6094379E+00
 3.3753481E+00  9.6723824E+00
 3.3785219E+00  9.7182703E+00
 3.3816957E+00  9.7077065E+00
 3.3848696E+00  9.7075644E+00
 3.3880434E+00  9.7058420E+00
 3.3912172E+00  9.6650620E+00
 3.3943911E+00  9.6530981E+00
 3.3975649E+00  9.6059647E+00
 3.4007387E+00  9.5556364E+00
 3.4039125E+00  9.6248922E+00
 3.4070861E+00  9.6055689E+00
 3.4102600E+00  9.6258001E+00
 3.4134338E+00  9.7109013E+00
 3.4166076E+00  9.7005472E+00
 3.4197814E+00  9.6259975E+00
 3.4229553E+00  9.6158981E+00
 3.4261291E+00  9.7079449E+00
 3.4293029E+00  1.0017470E+01
 3.4324768E+00  1.0170436E+01
 3.4356506E+00  9.8407393E+00
 3.4388244E+00  9.8152170E+00
 3.4419982E+00  9.8758659E+00
 3.4451721E+00  9.9310665E+00
 3.4483459E+00  9.9575605E+00
 3.4515195E+00  9.8625441E+00
 3.4546933E+00  9.7449083E+00
 3.4578671E+00  9.7387247E+00
 3.4610410E+00  9.7128181E+00
 3.4642148E+00  9.6472273E+00
 3.4673886E+00  9.6288137E+00
 3.4705625E+00  9.5964012E+00
 3.4737363E+00  9.5692616E+00
 3.4769101E+00  9.5993490E+00
 3.4800839E+00  9.6134806E+00
 3.4832578E+00  9.5734129E+00
 3.4864316E+00  9.5799837E+00
 3.4896054E+00  9.6057825E+00
 3.4927793E+00  9.6887093E+00
 3.4959528E+00  9.6655684E+00
 3.4991267E+00  9.7164221E+00
 3.5023005E+00  9.7818346E+00
 3.5054743E+00  9.7211313E+00
 3.5086482E+00  9.6471357E+00
 3.5118220E+00  9.6365433E+00
 3.5149958E+00  9.6268816E+00
 3.5181696E+00  9.6505127E+00
 3.5213435E+00  9.7727337E+00
 3.5245173E+00  9.8454151E+00
 3.5276911E+00  9.8646126E+00
 3.5308650E+00  9.7025023E+00
 3.5340388E+00  9.6332483E+00
 3.5372126E+00  9.6485243E+00
 3.5403862E+00  9.6260004E+00
 3.5435600E+00  9.5878038E+00
 3.5467339E+00  9.7183399E+00
 3.5499077E+00  9.7752714E+00
 3.5530815E+00  9.6872244E+00
 3.5562553E+00  9.6729736E+00
 3.5594292E+00  9.6838608E+00
 3.5626030E+00  9.7735310E+00
 3.5657768E+00  9.7813244E+00
 3.5689507E+00  9.6923809E+00
 3.5721245E+00  9.7348566E+00
 3.5752983E+00  9.8773165E+00
 3.5784721E+00  9.8552551E+00
 3.5816460E+00  9.6894989E+00
 3.5848196E+00  9.6526527E+00
 3.5879934E+00  9.6124878E+00
 3.5911672E+00  9.6405907E+00
 3.5943410E+00  9.6715221E+00
 3.5975149E+00  9.6300945E+00
 3.6006887E+00  9.7704697E+00
 3.6038625E+00  9.9625883E+00
 3.6070364E+00  9.8153877E+00
 3.6102102E+00  9.6330671E+00
 3.6133840E+00  9.6226110E+00
 3.6165578E+00  9.6329479E+00
 3.6197317E+00  9.6445961E+00
 3.6229055E+00  9.6635542E+00
 3.6260793E+00  9.6432199E+00
 3.6292529E+00  9.5841274E+00
 3.6324267E+00  9.6026402E+00
 3.6356006E+00  9.6380997E+00
 3.6387744E+00  9.6663828E+00
 3.6419482E+00  9.8690767E+00
 3.6451221E+00  1.0105025E+01
 3.6482959E+00  9.9279594E+00
 3.6514697E+00  9.8016024E+00
 3.6546435E+00  9.6771870E+00
 3.6578174E+00  9.6384039E+00
 3.6609912E+00  9.6448841E+00
 3.6641650E+00  9.6359015E+00
 3.6673388E+00  9.6520119E+00
 3.6705127E+00  9.6716242E+00
 3.6736863E+00  9.6364231E+00
 3.6768601E+00  9.6333790E+00
 3.6800339E+00  9.6310005E+00
 3.6832078E+00  9.6336384E+00
 3.6863816E+00  9.7088890E+00
 3.6895554E+00  9.7352362E+00
 3.6927292E+00  9.6783381E+00
 3.6959031E+00  9.6984968E+00
 3.6990769E+00  9.7168026E+00
 3.7022507E+00  9.7024441E+00
 3.7054245E+00  9.7081423E+00
 3.7085984E+00  9.6344690E+00
 3.7117722E+00  9.8339262E+00
 3.7149460E+00  9.9976053E+00
 3.7181196E+00  9.9222851E+00
 3.7212934E+00  9.7992210E+00
 3.7244673E+00  9.8336830E+00
 3.7276411E+00  9.8362150E+00
 3.7308149E+00  9.7425451E+00
 3.7339888E+00  9.7766733E+00
 3.7371626E+00  9.8323994E+00
 3.7403364E+00  9.9228334E+00
 3.7435102E+00  9.8066063E+00
 3.7466841E+00  9.6839724E+00
 3.7498579E+00  9.7002144E+00
 3.7530317E+00  9.7734623E+00
 3.7562056E+00  9.7939825E+00
 3.7593794E+00  9.6756210E+00
 3.7625530E+00  9.6677256E+00
 3.7657268E+00  9.6709423E+00
 3.7689006E+00  9.6600266E+00
 3.7720745E+00  9.6750727E+00
 3.7752483E+00  9.7429857E+00
 3.7784221E+00  9.7735529E+00
 3.7815959E+00  9.7111359E+00
 3.7847698E+00  9.6755886E+00
 3.7879436E+00  9.7322578E+00
 3.7911174E+00  9.8065243E+00
 3.7942913E+00  9.6343107E+00
 3.7974651E+00  9.6285419E+00
 3.8006389E+00  9.6583815E+00
 3.8038127E+00  9.6718016E+00
 3.8069863E+00  9.6755371E+00
 3.8101602E+00  9.6678400E+00
 3.8133340E+00  9.6754084E+00
 3.8165078E+00  9.6682863E+00
 3.8196816E+00  9.6133556E+00
 3.8228555E+00  9.5977135E+00
 3.8260293E+00  9.7140617E+00
 3.8292031E+00  9.6780424E+00
 3.8323770E+00  9.6544466E+00
 3.8355508E+00  9.6811342E+00
 3.8387246E+00  9.6772251E+00
 3.8418984E+00  9.6827593E+00
 3.8450723E+00  9.6497536E+00
 3.8482461E+00  9.6474361E+00
 3.8514197E+00  9.6740007E+00
 3.8545935E+00  9.6949329E+00
 3.8577673E+00  9.6850462E+00
 3.8609412E+00  9.7247200E+00
 3.8641150E+00  9.8211832E+00
 3.8672888E+00  9.8815928E+00
 3.8704627E+00  9.7543373E+00
 3.8736365E+00  9.6460905E+00
 3.8768103E+00  9.6635008E+00
 3.8799841E+00  9.6988869E+00
 3.8831580E+00  9.6990032E+00
 3.8863318E+00  9.7053776E+00
 3.8895056E+00  9.7178059E+00
 3.8926795E+00  9.6852312E+00
 3.8958530E+00  9.7137766E+00
 3.8990269E+00  9.7868137E+00
 3.9022007E+00  9.9260130E+00
 3.9053745E+00  9.8595676E+00
 3.9085484E+00  9.7572432E+00
 3.9117222E+00  9.7393560E+00
 3.9148960E+00  9.7360411E+00
 3.9180698E+00  9.7174072E+00
 3.9212437E+00  9.7481298E+00
 3.9244175E+00  9.7744780E+00
 3.9275913E+00  9.8019867E+00
 3.9307652E+00  9.7493505E+00
 3.9339390E+00  9.7379608E+00
 3.9371128E+00  9.7498283E+00
 3.9402864E+00  9.7493410E+00
 3.9434602E+00  9.6704588E+00
 3.9466341E+00  9.7069006E+00
 3.9498079E+00  9.6942606E+00
 3.9529817E+00  9.6535425E+00
 3.9561555E+00  9.6350965E+00
 3.9593294E+00  9.6948776E+00
 3.9625032E+00  9.7463789E+00
 3.9656770E+00  9.6879988E+00
 3.9688509E+00  9.6349726E+00
 3.9720247E+00  9.6526737E+00
 3.9751985E+00  9.6887970E+00
 3.9783723E+00  9.8309269E+00
 3.9815462E+00  1.0252605E+01
 3.9847198E+00  1.0400715E+01
 3.9878936E+00  9.9301786E+00
 3.9910674E+00  9.8849926E+00
 3.9942412E+00  9.7746925E+00
 3.9974151E+00  9.7134790E+00
 4.0005889E+00  9.7115803E+00
 4.0037627E+00  9.7028666E+00
 4.0069366E+00  9.7129946E+00
 4.0101104E+00  9.6776094E+00
 4.0132842E+00  9.6446705E+00
 4.0164580E+00  9.6305933E+00
 4.0196319E+00  9.6543570E+00
 4.0228057E+00  9.6875114E+00
 4.0259795E+00  9.6675158E+00
 4.0291533E+00  9.7019682E+00
 4.0323272E+00  9.7390060E+00
 4.0355010E+00  9.7258863E+00
 4.0386748E+00  9.7391911E+00
 4.0418487E+00  9.7096386E+00
 4.0450225E+00  9.7686300E+00
 4.0481963E+00  9.7709398E+00
 4.0513697E+00  9.8612280E+00
 4.0545435E+00  9.9671841E+00
 4.0577173E+00  9.8288183E+00
 4.0608912E+00  9.6887465E+00
 4.0640650E+00  9.6834307E+00
 4.0672388E+00  9.7384195E+00
 4.0704126E+00  9.7037668E+00
 4.0735865E+00  9.6475449E+00
 4.0767603E+00  9.6601086E+00
 4.0799341E+00  9.7324305E+00
 4.0831079E+00  9.7956743E+00
 4.0862818E+00  9.7818356E+00
 4.0894556E+00  9.8915052E+00
 4.0926294E+00  9.7566147E+00
 4.0958033E+00  9.6708794E+00
 4.0989771E+00  9.7392902E+00
 4.1021509E+00  9.8189831E+00
 4.1053247E+00  9.8471451E+00
 4.1084986E+00  9.9591970E+00
 4.1116724E+00  1.0198751E+01
 4.1148462E+00  1.0094074E+01
 4.1180201E+00  9.8114462E+00
 4.1211939E+00  9.8864336E+00
 4.1243677E+00  1.0155449E+01
 4.1275415E+00  1.0093509E+01
 4.1307154E+00  9.8536110E+00
 4.1338892E+00  9.9585295E+00
 4.1370630E+00  1.0033352E+01
 4.1402369E+00  9.8214359E+00
 4.1434102E+00  9.7389736E+00
 4.1465840E+00  9.7832394E+00
 4.1497579E+00  9.8563166E+00
 4.1529317E+00  9.8791018E+00
 4.1561055E+00  9.8754234E+00
 4.1592793E+00  9.9642096E+00
 4.1624532E+00  9.8184490E+00
 4.1656270E+00  9.7728748E+00
 4.1688008E+00  9.7464733E+00
 4.1719747E+00  9.7817955E+00
 4.1751485E+00  9.8723869E+00
 4.1783223E+00  1.0037167E+01
 4.1814961E+00  9.9810810E+00
 4.1846700E+00  9.7324553E+00
 4.1878438E+00  9.6663351E+00
 4.1910176E+00  9.7226343E+00
 4.1941915E+00  9.7376242E+00
 4.1973653E+00  9.7083492E+00
 4.2005391E+00  9.7828770E+00
 4.2037129E+00  9.9257813E+00
 4.2068868E+00  9.9141359E+00
 4.2100606E+00  9.8956575E+00
 4.2132344E+00  9.7964191E+00
 4.2164083E+00  9.7651548E+00
 4.2195821E+00  9.7187996E+00
 4.2227559E+00  9.6775217E+00
 4.2259297E+00  9.7275963E+00
 4.2291036E+00  9.7551737E+00
 4.2322769E+00  9.7581730E+00
 4.2354507E+00  9.7135916E+00
 4.2386246E+00  9.7029963E+00
 4.2417984E+00  9.6856031E+00
 4.2449722E+00  9.6863699E+00
 4.2481461E+00  9.7022648E+00
 4.2513199E+00  9.7097263E+00
 4.2544937E+00  9.6677494E+00
 4.2576675E+00  9.6796522E+00
 4.2608414E+00  9.6850910E+00
 4.2640152E+00  9.7307119E+00
 4.2671890E+00  9.7544651E+00
 4.2703629E+00  9.8063059E+00
 4.2735367E+00  9.7880325E+00
 4.2767105E+00  9.7058411E+00
 4.2798843E+00  9.8109331E+00
 4.2830582E+00  9.8790150E+00
 4.2862320E+00  9.8181190E+00
 4.2894058E+00  9.7422915E+00
 4.2925797E+00  9.7226925E+00
 4.2957535E+00  9.7360783E+00
 4.2989273E+00  9.7445154E+00
 4.3021011E+00  9.7058268E+00
 4.3052750E+00  9.6935196E+00
 4.3084488E+00  9.7600870E+00
 4.3116226E+00  9.8680868E+00
 4.3147964E+00  9.8034372E+00
 4.3179703E+00  9.7408276E+00
 4.3211436E+00  9.7594357E+00
 4.3243175E+00  9.7720041E+00
 4.3274913E+00  9.7309513E+00
 4.3306651E+00  9.7486897E+00
 4.3338389E+00  9.7214994E+00
 4.3370128E+00  9.7583704E+00
 4.3401866E+00  9.7790909E+00
 4.3433604E+00  9.8028822E+00
 4.3465343E+00  9.7682962E+00
 4.3497081E+00  9.7077179E+00
 4.3528819E+00  9.6826429E+00
 4.3560557E+00  9.6606951E+00
 4.3592296E+00  9.6976118E+00
 4.3624034E+00  9.7399149E+00
 4.3655772E+00  9.7397175E+00
 4.3687510E+00  9.7600212E+00
 4.3719249E+00  9.8068581E+00
 4.3750987E+00  9.7780514E+00
 4.3782725E+00  9.7512331E+00
 4.3814464E+00  9.7029533E+00
 4.3846202E+00  9.7048578E+00
 4.3877940E+00  9.7652187E+00
 4.3909678E+00  9.7966108E+00
 4.3941417E+00  9.7514982E+00
 4.3973155E+00  9.6874275E+00
 4.4004893E+00  9.7067251E+00
 4.4036632E+00  9.7352438E+00
 4.4068370E+00  9.7368822E+00
 4.4100103E+00  9.8420992E+00
 4.4131842E+00  9.8363819E+00
 4.4163580E+00  9.7519426E+00
 4.4195318E+00  9.7832108E+00
 4.4227057E+00  9.9070654E+00
 4.4258795E+00  9.9267626E+00
 4.4290533E+00  9.9897995E+00
 4.4322271E+00  9.9633408E+00
 4.4354010E+00  9.8303452E+00
 4.4385748E+00  9.7747231E+00
 4.4417486E+00  9.7531309E+00
 4.4449224E+00  9.8077374E+00
 4.4480963E+00  9.8216734E+00
 4.4512701E+00  9.7974787E+00
 4.4544439E+00  9.7717619E+00
 4.4576178E+00  9.6640959E+00
 4.4607916E+00  9.7089224E+00
 4.4639654E+00  9.7418327E+00
 4.4671392E+00  9.8372316E+00
 4.4703131E+00  9.7348881E+00
 4.4734869E+00  9.7057753E+00
 4.4766607E+00  9.7358246E+00
 4.4798346E+00  9.7641363E+00
 4.4830084E+00  9.7814264E+00
 4.4861822E+00  9.7427216E+00
 4.4893560E+00  9.7548647E+00
 4.4925299E+00  9.7348833E+00
 4.4957037E+00  9.7192354E+00
 4.4988770E+00  9.7228136E+00
 4.5020509E+00  9.7235155E+00
 4.5052247E+00  9.7310486E+00
 4.5083985E+00  9.7339172E+00
 4.5115724E+00  9.7604799E+00
 4.5147462E+00  9.8032598E+00
 4.5179200E+00  9.8840694E+00
 4.5210938E+00  9.8730621E+00
 4.5242677E+00  9.8661261E+00
 4.5274415E+00  9.8628588E+00
 4.5306153E+00  9.7020845E+00
 4.5337892E+00  9.7172995E+00
 4.5369630E+00  9.7557049E+00
 4.5401368E+00  9.7144079E+00
 4.5433106E+00  9.7165298E+00
 4.5464845E+00  9.6916418E+00
 4.5496583E+00  9.7002249E+00
 4.5528321E+00  9.7310143E+00
 4.5560060E+00  9.7669611E+00
 4.5591798E+00  9.8189945E+00
 4.5623536E+00  9.8345680E+00
 4.5655274E+00  9.7522383E+00
 4.5687013E+00  9.7674379E+00
 4.5718751E+00  9.7803383E+00
 4.5750489E+00  9.8367329E+00
 4.5782228E+00  9.9568081E+00
 4.5813966E+00  1.0021331E+01
 4.5845704E+00  1.0004711E+01
 4.5877438E+00  9.8136320E+00
 4.5909176E+00  9.7785578E+00
 4.5940914E+00  9.7435999E+00
 4.5972652E+00  9.7600965E+00
 4.6004391E+00  9.7390528E+00
 4.6036129E+00  9.6988878E+00
 4.6067867E+00  9.7882853E+00
 4.6099606E+00  9.8442736E+00
 4.6131344E+00  9.9533405E+00
 4.6163082E+00  1.0145083E+01
 4.6194820E+00  9.9640570E+00
 4.6226559E+00  9.8234749E+00
 4.6258297E+00  9.7558575E+00
 4.6290035E+00  9.7430124E+00
 4.6321774E+00  9.8119545E+00
 4.6353512E+00  9.8623171E+00
 4.6385250E+00  9.8251762E+00
 4.6416988E+00  9.7717962E+00
 4.6448727E+00  9.7647781E+00
 4.6480465E+00  9.8444786E+00
 4.6512203E+00  9.8787413E+00
 4.6543941E+00  9.7880058E+00
 4.6575680E+00  9.7571707E+00
 4.6607418E+00  9.8802710E+00
 4.6639156E+00  9.9438839E+00
 4.6670895E+00  9.7615376E+00
 4.6702633E+00  9.7354240E+00
 4.6734371E+00  9.7412100E+00
 4.6766105E+00  9.7304106E+00
 4.6797843E+00  9.7758780E+00
 4.6829581E+00  9.8074160E+00
 4.6861320E+00  9.7792206E+00
 4.6893058E+00  9.7637920E+00
 4.6924796E+00  9.8091898E+00
 4.6956534E+00  9.7862759E+00
 4.6988273E+00  9.7969065E+00
 4.7020011E+00  9.8375664E+00
 4.7051749E+00  9.7976093E+00
 4.7083488E+00  9.7679396E+00
 4.7115226E+00  1.0041146E+01
 4.7146964E+00  9.9673262E+00
 4.7178702E+00  9.8867979E+00
 4.7210441E+00  9.9633770E+00
 4.7242179E+00  1.0052391E+01
 4.7273917E+00  1.0080246E+01
 4.7305655E+00  9.9190397E+00
 4.7337394E+00  9.8218927E+00
 4.7369132E+00  9.7421961E+00
 4.7400870E+00  9.7679663E+00
 4.7432609E+00  9.8199902E+00
 4.7464347E+00  9.7975225E+00
 4.7496085E+00  9.7534227E+00
 4.7527823E+00  9.7307882E+00
 4.7559562E+00  9.7889891E+00
 4.7591300E+00  9.7909164E+00
 4.7623038E+00  9.7335348E+00
 4.7654772E+00  9.7291431E+00
 4.7686510E+00  9.7815275E+00
 4.7718248E+00  9.8301592E+00
 4.7749987E+00  9.8490114E+00
 4.7781725E+00  9.8189487E+00
 4.7813463E+00  9.8114367E+00
 4.7845201E+00  9.8580866E+00
 4.7876940E+00  9.7899313E+00
 4.7908678E+00  9.7753153E+00
 4.7940416E+00  9.7409182E+00
 4.7972155E+00  9.7399750E+00
 4.8003893E+00  9.8777695E+00
 4.8035631E+00  9.9843102E+00
 4.8067369E+00  9.9515305E+00
 4.8099108E+00  9.7905951E+00
 4.8130846E+00  9.7621517E+00
 4.8162584E+00  9.7608347E+00
 4.8194323E+00  9.7574110E+00
 4.8226061E+00  9.7056141E+00
 4.8257799E+00  9.7302418E+00
 4.8289537E+00  9.7679663E+00
 4.8321276E+00  9.7870989E+00
 4.8353014E+00  9.8104839E+00
 4.8384752E+00  9.9510431E+00
 4.8416491E+00  9.8915129E+00
 4.8448229E+00  9.8165312E+00
 4.8479967E+00  9.7910099E+00
 4.8511705E+00  9.8735142E+00
 4.8543439E+00  9.8689289E+00
 4.8575177E+00  9.8812475E+00
 4.8606915E+00  9.8617868E+00
 4.8638654E+00  9.8519926E+00
 4.8670392E+00  9.8251152E+00
 4.8702130E+00  9.7899237E+00
 4.8733869E+00  9.7798748E+00
 4.8765607E+00  9.7755823E+00
 4.8797345E+00  9.7896032E+00
 4.8829083E+00  9.8095617E+00
 4.8860822E+00  9.7775145E+00
 4.8892560E+00  9.7354326E+00
 4.8924298E+00  9.7397747E+00
 4.8956037E+00  9.7333069E+00
 4.8987775E+00  9.7646894E+00
 4.9019513E+00  9.7940331E+00
 4.9051251E+00  9.8173027E+00
 4.9082990E+00  9.7469501E+00
 4.9114728E+00  9.7483530E+00
 4.9146466E+00  9.7862825E+00
 4.9178205E+00  9.8186111E+00
 4.9209943E+00  9.8795776E+00
 4.9241681E+00  9.8197594E+00
 4.9273419E+00  9.7760735E+00
 4.9305158E+00  9.7679319E+00
 4.9336896E+00  9.7689238E+00
 4.9368634E+00  9.7096910E+00
 4.9400373E+00  9.6833372E+00
 4.9432106E+00  9.7524643E+00
 4.9463844E+00  9.7862062E+00
 4.9495583E+00  9.7215118E+00
 4.9527321E+00  9.6825428E+00
 4.9559059E+00  9.7215824E+00
 4.9590797E+00  9.7204142E+00
 4.9622536E+00  9.6920929E+00
 4.9654274E+00  9.7218857E+00
 4.9686012E+00  9.7811775E+00
 4.9717751E+00  9.7899742E+00
 4.9749489E+00  9.7746391E+00
 4.9781227E+00  9.7286673E+00
 4.9812965E+00  9.7971859E+00
 4.9844704E+00  9.8669806E+00
 4.9876442E+00  9.8576946E+00
 4.9908180E+00  9.8185225E+00
 4.9939919E+00  9.9501686E+00
 4.9971657E+00  1.0028914E+01
 5.0003395E+00  9.9019556E+00
 5.0035133E+00  9.8582907E+00
 5.0066872E+00  9.7998075E+00
 5.0098610E+00  9.7590446E+00
 5.0130348E+00  9.7595034E+00
 5.0162086E+00  9.8075886E+00
 5.0193825E+00  9.8774118E+00
 5.0225563E+00  9.9284992E+00
 5.0257301E+00  9.8830614E+00
 5.0289040E+00  9.8143988E+00
 5.0320773E+00  9.8847647E+00
 5.0352511E+00  9.8430395E+00
 5.0384250E+00  9.6903391E+00
 5.0415988E+00  9.6947622E+00
 5.0447726E+00  9.7356443E+00
 5.0479465E+00  9.7632465E+00
 5.0511203E+00  9.7918196E+00
 5.0542941E+00  9.7991619E+00
 5.0574679E+00  9.7581024E+00
 5.0606418E+00  9.7680025E+00
 5.0638156E+00  9.7556715E+00
 5.0669894E+00  9.7506027E+00
 5.0701632E+00  9.8081169E+00
 5.0733371E+00  9.9491711E+00
 5.0765109E+00  1.0045477E+01
 5.0796847E+00  9.8533382E+00
 5.0828586E+00  9.6999254E+00
 5.0860324E+00  9.7311411E+00
 5.0892062E+00  1.0022436E+01
 5.0923800E+00  1.0112783E+01
 5.0955539E+00  9.8924484E+00
 5.0987277E+00  9.8097095E+00
 5.1019015E+00  9.7536364E+00
 5.1050754E+00  9.7335863E+00
 5.1082492E+00  9.7958937E+00
 5.1114230E+00  9.9349613E+00
 5.1145968E+00  9.9395390E+00
 5.1177707E+00  1.0002253E+01
 5.1209440E+00  1.0119943E+01
 5.1241179E+00  1.0181180E+01
 5.1272917E+00  9.8737230E+00
 5.1304655E+00  9.7670488E+00
 5.1336393E+00  9.7530336E+00
 5.1368132E+00  9.7635231E+00
 5.1399870E+00  9.8211107E+00
 5.1431608E+00  9.7761383E+00
 5.1463346E+00  9.7758312E+00
 5.1495085E+00  9.8870039E+00
 5.1526823E+00  9.8663902E+00
 5.1558561E+00  9.7650824E+00
 5.1590300E+00  9.7404909E+00
 5.1622038E+00  9.7951708E+00
 5.1653776E+00  9.7876234E+00
 5.1685514E+00  9.7729301E+00
 5.1717253E+00  9.7951412E+00
 5.1748991E+00  9.7529697E+00
 5.1780729E+00  9.8151751E+00
 5.1812468E+00  9.8240023E+00
 5.1844206E+00  9.8081360E+00
 5.1875944E+00  9.8371668E+00
 5.1907682E+00  9.8029060E+00
 5.1939421E+00  9.7433004E+00
 5.1971159E+00  9.7794294E+00
 5.2002897E+00  9.8332834E+00
 5.2034636E+00  9.9705658E+00
 5.2066374E+00  9.8736544E+00
 5.2098107E+00  9.7365828E+00
 5.2129846E+00  9.7360163E+00
 5.2161584E+00  9.8779707E+00
 5.2193322E+00  9.8408756E+00
 5.2225060E+00  9.7681875E+00
 5.2256799E+00  9.8018551E+00
 5.2288537E+00  9.8056850E+00
 5.2320275E+00  9.8535280E+00
 5.2352014E+00  9.9022169E+00
 5.2383752E+00  9.8432322E+00
 5.2415490E+00  9.7699537E+00
 5.2447228E+00  9.8311529E+00
 5.2478967E+00  9.8080273E+00
 5.2510705E+00  9.8112793E+00
 5.2542443E+00  9.8288279E+00
 5.2574182E+00  9.8329678E+00
 5.2605920E+00  9.8522406E+00
 5.2637658E+00  9.8230305E+00
 5.2669396E+00  9.7710371E+00
 5.2701135E+00  9.7737980E+00
 5.2732873E+00  9.8210783E+00
 5.2764611E+00  9.8125353E+00
 5.2796350E+00  9.8260698E+00
 5.2828088E+00  9.8332539E+00
 5.2859826E+00  9.8494873E+00
 5.2891564E+00  9.8401546E+00
 5.2923303E+00  9.8042488E+00
 5.2955041E+00  9.9798555E+00
 5.2986774E+00  1.0342788E+01
 5.3018513E+00  1.0391875E+01
 5.3050251E+00  1.0263158E+01
 5.3081989E+00  1.0415309E+01
 5.3113728E+00  1.0018899E+01
 5.3145466E+00  9.7822657E+00
 5.3177204E+00  9.7975788E+00
 5.3208942E+00  9.8096056E+00
 5.3240681E+00  9.7768688E+00
 5.3272419E+00  9.7845163E+00
 5.3304157E+00  9.7688227E+00
 5.3335896E+00  9.7969522E+00
 5.3367634E+00  9.9288187E+00
 5.3399372E+00  9.9797878E+00
 5.3431110E+00  9.9789047E+00
 5.3462849E+00  9.9051771E+00
 5.3494587E+00  9.8348684E+00
 5.3526325E+00  9.8172541E+00
 5.3558064E+00  9.9032116E+00
 5.3589802E+00  9.9478455E+00
 5.3621540E+00  1.0076251E+01
 5.3653278E+00  1.0071151E+01
 5.3685017E+00  9.8583174E+00
 5.3716755E+00  9.8255272E+00
 5.3748493E+00  9.8232937E+00
 5.3780231E+00  9.7804918E+00
 5.3811970E+00  9.8179789E+00
 5.3843708E+00  9.8371325E+00
 5.3875442E+00  1.0050427E+01
 5.3907180E+00  9.9909601E+00
 5.3938918E+00  9.8773909E+00
 5.3970656E+00  9.8404589E+00
 5.4002395E+00  9.8558598E+00
 5.4034133E+00  9.9101410E+00
 5.4065871E+00  9.9126511E+00
 5.4097610E+00  9.8367929E+00
 5.4129348E+00  9.8494081E+00
 5.4161086E+00  9.8800745E+00
 5.4192824E+00  9.9103718E+00
 5.4224563E+00  9.8723106E+00
 5.4256301E+00  9.8990364E+00
 5.4288039E+00  9.8605623E+00
 5.4319777E+00  9.8875256E+00
 5.4351516E+00  9.8555298E+00
 5.4383254E+00  9.8251143E+00
 5.4414992E+00  9.8846035E+00
 5.4446731E+00  9.9097099E+00
 5.4478469E+00  9.8236485E+00
 5.4510207E+00  9.7957850E+00
 5.4541945E+00  9.8329430E+00
 5.4573684E+00  9.8839712E+00
 5.4605422E+00  9.8623571E+00
 5.4637160E+00  9.8838511E+00
 5.4668899E+00  1.0355315E+01
 5.4700637E+00  1.0770338E+01
 5.4732375E+00  1.0270220E+01
 5.4764109E+00  9.8836355E+00
 5.4795847E+00  9.8162308E+00
 5.4827585E+00  9.8594637E+00
 5.4859324E+00  9.9755917E+00
 5.4891062E+00  9.9944172E+00
 5.4922800E+00  9.8964062E+00
 5.4954538E+00  9.8831387E+00
 5.4986277E+00  9.8595266E+00
 5.5018015E+00  9.9199467E+00
 5.5049753E+00  1.0183653E+01
 5.5081491E+00  9.9833546E+00
 5.5113230E+00  9.8551931E+00
 5.5144968E+00  9.8843107E+00
 5.5176706E+00  9.8960075E+00
 5.5208445E+00  9.9513721E+00
 5.5240183E+00  1.0080090E+01
 5.5271921E+00  1.0053747E+01
 5.5303659E+00  1.0053450E+01
 5.5335398E+00  1.0009186E+01
 5.5367136E+00  9.9685078E+00
 5.5398874E+00  9.9824657E+00
 5.5430613E+00  9.9962168E+00
 5.5462351E+00  9.8950300E+00
 5.5494089E+00  9.8872166E+00
 5.5525827E+00  1.0006359E+01
 5.5557566E+00  1.0036860E+01
 5.5589304E+00  9.9878654E+00
 5.5621042E+00  1.0018942E+01
 5.5652776E+00  9.8635120E+00
 5.5684514E+00  9.8679304E+00
 5.5716252E+00  9.9231100E+00
 5.5747991E+00  9.9854450E+00
 5.5779729E+00  1.0000449E+01
 5.5811467E+00  9.9164381E+00
 5.5843205E+00  9.9072218E+00
 5.5874944E+00  9.9357510E+00
 5.5906682E+00  9.9534044E+00
 5.5938420E+00  9.8699417E+00
 5.5970159E+00  9.8256779E+00
 5.6001897E+00  9.7907190E+00
 5.6033635E+00  9.7542200E+00
 5.6065373E+00  9.7806644E+00
 5.6097112E+00  9.8721952E+00
 5.6128850E+00  9.8654652E+00
 5.6160588E+00  9.9002390E+00
 5.6192327E+00  9.9484491E+00
 5.6224065E+00  9.8742418E+00
 5.6255803E+00  9.8494987E+00
 5.6287541E+00  9.8424273E+00
 5.6319280E+00  9.8407812E+00
 5.6351018E+00  9.8702364E+00
 5.6382756E+00  9.8515387E+00
 5.6414495E+00  9.8992109E+00
 5.6446233E+00  9.8557062E+00
 5.6477971E+00  9.8153954E+00
 5.6509709E+00  9.9844322E+00
 5.6541443E+00  1.0241637E+01
 5.6573181E+00  1.0028376E+01
 5.6604919E+00  9.8494883E+00
 5.6636658E+00  9.8536520E+00
 5.6668396E+00  9.8340359E+00
 5.6700134E+00  9.8556681E+00
 5.6731873E+00  9.8698969E+00
 5.6763611E+00  1.0050640E+01
 5.6795349E+00  1.0221933E+01
 5.6827087E+00  1.0274813E+01
 5.6858826E+00  1.0080428E+01
 5.6890564E+00  9.9563341E+00
 5.6922302E+00  9.9687433E+00
 5.6954041E+00  9.9443951E+00
 5.6985779E+00  9.9695244E+00
 5.7017517E+00  9.9601135E+00
 5.7049255E+00  9.8438063E+00
 5.7080994E+00  9.8818331E+00
 5.7112732E+00  9.8536110E+00
 5.7144470E+00  9.9170198E+00
 5.7176208E+00  1.0143013E+01
 5.7207947E+00  9.9694138E+00
 5.7239685E+00  9.8998966E+00
 5.7271423E+00  9.9110689E+00
 5.7303162E+00  9.9452534E+00
 5.7334900E+00  9.9659758E+00
 5.7366638E+00  9.9234715E+00
 5.7398376E+00  9.8863087E+00
 5.7430115E+00  9.8937140E+00
 5.7461848E+00  9.9203691E+00
 5.7493587E+00  1.0139397E+01
 5.7525325E+00  1.0293252E+01
 5.7557063E+00  1.0078771E+01
 5.7588801E+00  1.0032053E+01
 5.7620540E+00  9.9762182E+00
 5.7652278E+00  9.8991861E+00
 5.7684016E+00  9.9507179E+00
 5.7715755E+00  9.9492407E+00
 5.7747493E+00  9.9051075E+00
 5.7779231E+00  9.9562883E+00
 5.7810969E+00  1.0097172E+01
 5.7842708E+00  1.0320421E+01
 5.7874446E+00  1.0288119E+01
 5.7906184E+00  1.0393413E+01
 5.7937922E+00  1.0238419E+01
 5.7969661E+00  1.0016771E+01
 5.8001399E+00  9.8788424E+00
 5.8033137E+00  9.8767796E+00
 5.8064876E+00  9.9752226E+00
 5.8096614E+00  9.9614096E+00
 5.8128352E+00  9.8742752E+00
 5.8160090E+00  9.8504686E+00
 5.8191829E+00  9.9777279E+00
 5.8223567E+00  9.9908466E+00
 5.8255305E+00  9.9684629E+00
 5.8287044E+00  9.9136181E+00
 5.8318782E+00  9.8401966E+00
 5.8350515E+00  9.7803822E+00
 5.8382254E+00  9.8362818E+00
 5.8413992E+00  9.7901382E+00
 5.8445730E+00  9.8807192E+00
 5.8477468E+00  9.8790178E+00
 5.8509207E+00  9.8491259E+00
 5.8540945E+00  9.8601179E+00
 5.8572683E+00  9.8817215E+00
 5.8604422E+00  9.8624287E+00
 5.8636160E+00  9.8391485E+00
 5.8667898E+00  9.8170004E+00
 5.8699636E+00  9.8792238E+00
 5.8731375E+00  9.8676653E+00
 5.8763113E+00  9.9754505E+00
 5.8794851E+00  1.0091689E+01
 5.8826590E+00  9.9980497E+00
 5.8858328E+00  9.9651651E+00
 5.8890066E+00  9.9804316E+00
 5.8921804E+00  9.9161758E+00
 5.8953543E+00  9.9554758E+00
 5.8985281E+00  9.9211111E+00
 5.9017019E+00  9.9266596E+00
 5.9048758E+00  9.8592539E+00
 5.9080496E+00  9.9310017E+00
 5.9112234E+00  1.0030474E+01
 5.9143972E+00  1.0063140E+01
 5.9175711E+00  9.9989843E+00
 5.9207449E+00  9.9290266E+00
 5.9239182E+00  9.8991537E+00
 5.9270921E+00  9.9239655E+00
 5.9302659E+00  1.0000042E+01
 5.9334397E+00  1.0264520E+01
 5.9366136E+00  1.0425174E+01
 5.9397874E+00  1.0420131E+01
 5.9429612E+00  1.0287889E+01
 5.9461350E+00  1.0197526E+01
 5.9493089E+00  1.0053293E+01
 5.9524827E+00  9.9766655E+00
 5.9556565E+00  9.9434261E+00
 5.9588304E+00  9.9406376E+00
 5.9620042E+00  9.9351501E+00
 5.9651780E+00  1.0002872E+01
 5.9683518E+00  9.9693050E+00
 5.9715257E+00  9.9540281E+00
 5.9746995E+00  9.9130917E+00
 5.9778733E+00  9.9514198E+00
 5.9810472E+00  9.9098110E+00
 5.9842210E+00  9.8785868E+00
 5.9873948E+00  9.9137859E+00
 5.9905686E+00  9.9899111E+00
 5.9937425E+00  9.9686480E+00
 5.9969163E+00  9.9296646E+00
 6.0000901E+00  9.9013367E+00
 6.0032640E+00  9.9356632E+00
 6.0064378E+00  9.9769640E+00
 6.0096116E+00  1.0108040E+01
 6.0127850E+00  1.0030904E+01
 6.0159588E+00  9.9376316E+00
 6.0191326E+00  9.9482479E+00
 6.0223064E+00  9.9705353E+00
 6.0254803E+00  9.9324608E+00
 6.0286541E+00  9.9186401E+00
 6.0318279E+00  1.0024080E+01
 6.0350018E+00  1.0060920E+01
 6.0381756E+00  9.9991217E+00
 6.0413494E+00  9.9859819E+00
 6.0445232E+00  9.9377308E+00
 6.0476971E+00  9.9827719E+00
 6.0508709E+00  1.0032795E+01
 6.0540447E+00  1.0003290E+01
 6.0572186E+00  1.0008257E+01
 6.0603924E+00  1.0045441E+01
 6.0635662E+00  9.9928741E+00
 6.0667400E+00  9.9386749E+00
 6.0699139E+00  9.9556198E+00
 6.0730877E+00  9.9762554E+00
 6.0762615E+00  1.0037731E+01
 6.0794353E+00  1.0152124E+01
 6.0826092E+00  1.0069724E+01
 6.0857830E+00  1.0063012E+01
 6.0889568E+00  9.9924164E+00
 6.0921307E+00  9.9553337E+00
 6.0953045E+00  1.0022427E+01
 6.0984783E+00  1.0012285E+01
 6.1016517E+00  9.9318476E+00
 6.1048255E+00  9.8791742E+00
 6.1079993E+00  9.9116240E+00
 6.1111732E+00  9.9869556E+00
 6.1143470E+00  9.9087267E+00
 6.1175208E+00  9.9111385E+00
 6.1206946E+00  1.0023266E+01
 6.1238685E+00  1.0093240E+01
 6.1270423E+00  1.0047047E+01
 6.1302161E+00  9.9341869E+00
 6.1333899E+00  1.0002264E+01
 6.1365638E+00  9.9852200E+00
 6.1397376E+00  9.9975643E+00
 6.1429114E+00  1.0065525E+01
 6.1460853E+00  1.0343643E+01
 6.1492591E+00  1.0182593E+01
 6.1524329E+00  1.0124965E+01
 6.1556067E+00  9.9794960E+00
 6.1587806E+00  9.9289236E+00
 6.1619544E+00  9.9023209E+00
 6.1651282E+00  9.9650373E+00
 6.1683021E+00  1.0016100E+01
 6.1714759E+00  9.9484243E+00
 6.1746497E+00  9.9844799E+00
 6.1778235E+00  9.9315348E+00
 6.1809974E+00  9.9018383E+00
 6.1841712E+00  9.9755125E+00
 6.1873450E+00  9.9172440E+00
 6.1905184E+00  9.9183931E+00
 6.1936922E+00  9.9380980E+00
 6.1968660E+00  9.9188852E+00
 6.2000399E+00  9.9254074E+00
 6.2032137E+00  9.9394255E+00
 6.2063875E+00  9.9205856E+00
 6.2095613E+00  9.9768658E+00
 6.2127352E+00  9.9463139E+00
 6.2159090E+00  9.9795523E+00
 6.2190828E+00  9.9615049E+00
 6.2222567E+00  9.9275560E+00
 6.2254305E+00  9.9004307E+00
 6.2286043E+00  9.9721670E+00
 6.2317781E+00  1.0055298E+01
 6.2349520E+00  1.0184011E+01
 6.2381258E+00  1.0278152E+01
 6.2412996E+00  1.0039183E+01
 6.2444735E+00  1.0002090E+01
 6.2476473E+00  9.9686985E+00
 6.2508211E+00  9.9679527E+00
 6.2539949E+00  9.9777784E+00
 6.2571688E+00  9.9938459E+00
 6.2603426E+00  1.0031511E+01
 6.2635164E+00  1.0034421E+01
 6.2666903E+00  9.9963608E+00
 6.2698641E+00  9.9500227E+00
 6.2730379E+00  9.9201746E+00
 6.2762117E+00  9.9542427E+00
 6.2793851E+00  1.0024089E+01
 6.2825589E+00  1.0037127E+01
 6.2857327E+00  9.9917669E+00
 6.2889066E+00  9.9704428E+00
 6.2920804E+00  1.0148117E+01
 6.2952542E+00  1.0160640E+01
 6.2984281E+00  1.0063873E+01
 6.3016019E+00  1.0041409E+01
 6.3047757E+00  1.0086891E+01
 6.3079495E+00  1.0148993E+01
 6.3111234E+00  1.0405100E+01
 6.3142972E+00  1.0312129E+01
 6.3174710E+00  1.0164668E+01
 6.3206449E+00  1.0054357E+01
 6.3238187E+00  9.9705324E+00
 6.3269925E+00  1.0213984E+01
 6.3301663E+00  1.0282235E+01
 6.3333402E+00  1.0093408E+01
 6.3365140E+00  9.9692650E+00
 6.3396878E+00  9.9471321E+00
 6.3428617E+00  9.9695559E+00
 6.3460355E+00  9.9647131E+00
 6.3492093E+00  9.8726816E+00
 6.3523831E+00  9.8573399E+00
 6.3555570E+00  9.7948084E+00
 6.3587308E+00  9.8099833E+00
 6.3619046E+00  9.9298925E+00
 6.3650784E+00  1.0001871E+01
 6.3682518E+00  9.9460182E+00
 6.3714256E+00  9.9409037E+00
 6.3745995E+00  9.9560623E+00
 6.3777733E+00  1.0014174E+01
 6.3809471E+00  9.9939070E+00
 6.3841209E+00  9.8608589E+00
 6.3872948E+00  9.8577404E+00
 6.3904686E+00  9.9174700E+00
 6.3936424E+00  9.9195709E+00
 6.3968163E+00  9.9422235E+00
 6.3999901E+00  1.0010122E+01
 6.4031639E+00  1.0025632E+01
 6.4063377E+00  1.0016024E+01
 6.4095116E+00  9.9825373E+00
 6.4126854E+00  9.9582558E+00
 6.4158592E+00  1.0002052E+01
 6.4190331E+00  9.9565983E+00
 6.4222069E+00  9.9503040E+00
 6.4253807E+00  1.0051777E+01
 6.4285545E+00  9.9931412E+00
 6.4317284E+00  9.9706402E+00
 6.4349022E+00  9.9803524E+00
 6.4380760E+00  1.0039113E+01
 6.4412498E+00  1.0061852E+01
 6.4444237E+00  1.0023112E+01
 6.4475975E+00  1.0018994E+01
 6.4507713E+00  1.0018542E+01
 6.4539452E+00  9.9561367E+00
 6.4571185E+00  9.8167524E+00
 6.4602923E+00  9.9623613E+00
 6.4634662E+00  9.9813309E+00
 6.4666400E+00  1.0006512E+01
 6.4698138E+00  1.0315719E+01
 6.4729877E+00  1.0392645E+01
 6.4761615E+00  1.0062753E+01
 6.4793353E+00  9.9087877E+00
 6.4825091E+00  9.9199209E+00
 6.4856830E+00  1.0205007E+01
 6.4888568E+00  1.0782522E+01
 6.4920306E+00  1.0346193E+01
 6.4952044E+00  9.9166861E+00
 6.4983783E+00  1.0010681E+01
 6.5015521E+00  9.9485321E+00
 6.5047259E+00  9.9208364E+00
 6.5078998E+00  9.9023848E+00
 6.5110736E+00  9.9520149E+00
 6.5142474E+00  1.0052417E+01
 6.5174212E+00  9.9441319E+00
 6.5205951E+00  9.9897070E+00
 6.5237689E+00  1.0173971E+01
 6.5269427E+00  1.0294298E+01
 6.5301166E+00  1.0070954E+01
 6.5332904E+00  9.8344793E+00
 6.5364642E+00  9.8465204E+00
 6.5396380E+00  9.9068594E+00
 6.5428119E+00  9.9736919E+00
 6.5459852E+00  1.0099977E+01
 6.5491590E+00  1.0098463E+01
 6.5523329E+00  1.0061462E+01
 6.5555067E+00  1.0018608E+01
 6.5586805E+00  1.0005408E+01
 6.5618544E+00  1.0031023E+01
 6.5650282E+00  1.0022976E+01
 6.5682020E+00  1.0019819E+01
 6.5713758E+00  9.9802132E+00
 6.5745497E+00  9.9068766E+00
 6.5777235E+00  9.9790382E+00
 6.5808973E+00  9.9985838E+00
 6.5840712E+00  9.9652920E+00
 6.5872450E+00  9.9281797E+00
 6.5904188E+00  9.9089518E+00
 6.5935926E+00  9.9814110E+00
 6.5967665E+00  1.0077106E+01
 6.5999403E+00  1.0024529E+01
 6.6031141E+00  9.9085093E+00
 6.6062880E+00  9.8491449E+00
 6.6094618E+00  9.9639549E+00
 6.6126356E+00  1.0223644E+01
 6.6158094E+00  1.0271008E+01
 6.6189833E+00  1.0101206E+01
 6.6221571E+00  9.9815483E+00
 6.6253309E+00  9.9003668E+00
 6.6285048E+00  1.0006553E+01
 6.6316786E+00  1.0004757E+01
 6.6348519E+00  1.0017941E+01
 6.6380258E+00  1.0018849E+01
 6.6411996E+00  1.0119896E+01
 6.6443734E+00  9.9220839E+00
 6.6475472E+00  9.8064566E+00
 6.6507211E+00  9.8765726E+00
 6.6538949E+00  9.9022655E+00
 6.6570687E+00  9.9268980E+00
 6.6602426E+00  1.0040183E+01
 6.6634164E+00  1.0024944E+01
 6.6665902E+00  9.9761524E+00
 6.6697640E+00  9.9622698E+00
 6.6729379E+00  9.9688797E+00
 6.6761117E+00  9.9795647E+00
 6.6792855E+00  9.9333286E+00
 6.6824594E+00  9.8519411E+00
 6.6856332E+00  9.9593344E+00
 6.6888070E+00  1.0042789E+01
 6.6919808E+00  9.9830532E+00
 6.6951547E+00  9.6699381E+00
 6.6983285E+00  9.7986345E+00
 6.7015023E+00  9.8456516E+00
 6.7046762E+00  9.7765818E+00
 6.7078500E+00  9.6506720E+00
 6.7110238E+00  9.8351784E+00
 6.7141976E+00  9.8381004E+00
 6.7173715E+00  9.8031492E+00
 6.7205453E+00  9.8854122E+00
 6.7237186E+00  1.0044297E+01
 6.7268925E+00  1.0007200E+01
 6.7300663E+00  9.9156122E+00
 6.7332401E+00  1.0032576E+01
 6.7364140E+00  1.0027422E+01
 6.7395878E+00  9.9510460E+00
 6.7427616E+00  1.0066371E+01
 6.7459354E+00  9.8154783E+00
 6.7491093E+00  9.9481792E+00
 6.7522831E+00  1.0057158E+01
 6.7554569E+00  9.9751272E+00
 6.7586308E+00  9.9014406E+00
 6.7618046E+00  1.0082261E+01
 6.7649784E+00  1.0081303E+01
 6.7681522E+00  9.9008627E+00
 6.7713261E+00  9.7481213E+00
 6.7744999E+00  9.8058605E+00
 6.7776737E+00  9.8648767E+00
 6.7808475E+00  9.8403921E+00
 6.7840214E+00  1.0195584E+01
 6.7871952E+00  1.0166903E+01
 6.7903690E+00  1.0062016E+01
 6.7935429E+00  9.8369083E+00
 6.7967167E+00  9.7454052E+00
 6.7998905E+00  9.6070204E+00
 6.8030643E+00  9.7195187E+00
 6.8062382E+00  9.9092531E+00
 6.8094120E+00  9.7577229E+00
 6.8125854E+00  9.7718706E+00
 6.8157592E+00  9.6129379E+00
 6.8189330E+00  9.3351679E+00
 6.8221068E+00  9.5348377E+00
 6.8252807E+00  9.6651230E+00
 6.8284545E+00  9.5742035E+00
 6.8316283E+00  9.7835989E+00
 6.8348022E+00  1.0000421E+01
 6.8379760E+00  9.8570518E+00
 6.8411498E+00  9.7970486E+00
 6.8443236E+00  9.5525246E+00
 6.8474975E+00  9.5749235E+00
 6.8506713E+00  9.5755625E+00
 6.8538451E+00  9.5227041E+00
 6.8570189E+00  9.4829779E+00
 6.8601928E+00  9.5796251E+00
 6.8633666E+00  9.4334106E+00
 6.8665404E+00  9.1426296E+00
 6.8697143E+00  9.4426174E+00
 6.8728881E+00  9.7430258E+00
 6.8760619E+00  9.2991104E+00
 6.8792357E+00  9.1377344E+00
 6.8824096E+00  9.2285786E+00
 6.8855834E+00  9.1879396E+00
 6.8887572E+00  8.8260984E+00
 6.8919311E+00  9.2083864E+00
 6.8951049E+00  9.4152727E+00
 6.8982787E+00  9.4104109E+00
 6.9014521E+00  9.0033092E+00
 6.9046259E+00  7.8745561E+00
 6.9077997E+00  8.3567085E+00
 6.9109735E+00  9.5045786E+00
 6.9141474E+00  1.0039839E+01
 6.9173212E+00  9.7663193E+00
 6.9204950E+00  9.2048283E+00
 6.9236689E+00  8.7895107E+00
 6.9268427E+00  8.9770536E+00
 6.9300165E+00  9.1252480E+00
